#device=ESP32+AD8232
#cols=t_ms,adc,lead_off
5759,2368,1
5763,0,0
5767,868,0
5771,3850,1
5775,2888,1
5779,0,0
5783,349,0
5787,4039,1
5791,3537,1
5795,0,0
5799,4,0
5803,3687,1
5807,3846,1
5811,0,0
5815,0,0
5819,2781,1
5823,3912,1
5827,676,0
5831,0,0
5835,2076,1
5839,3993,1
5843,1531,0
5847,0,0
5851,1394,0
5855,4006,1
5859,2257,1
5863,0,0
5867,803,0
5871,4055,1
5875,2910,1
5879,15,0
5883,324,0
5887,4005,1
5891,3511,1
5895,0,0
5899,0,0
5903,3277,1
5907,3849,1
5911,98,0
5915,0,0
5919,2499,1
5923,3958,1
5927,867,0
5931,0,0
5935,1929,0
5939,3991,1
5943,1583,0
5947,0,0
5951,1369,0
5955,4042,1
5959,2255,1
5963,0,0
5967,820,0
5971,4047,1
5975,2877,1
5979,131,0
5983,354,0
5987,4020,1
5991,3473,1
5995,0,0
5999,19,0
6003,3642,1
6007,3820,1
6011,0,0
6015,0,0
6019,2799,1
6023,3939,1
6027,644,0
6031,0,0
6035,2101,1
6039,3996,1
6043,1490,0
6047,0,0
6051,1461,0
6055,4012,1
6059,2190,1
6063,29,0
6067,855,0
6071,4046,1
6075,2803,1
6079,0,0
6083,380,0
6087,4031,1
6091,3473,1
6095,0,0
6099,31,0
6103,3689,1
6107,3845,1
6111,0,0
6115,0,0
6119,2827,1
6123,3913,1
6127,577,0
6131,0,0
6135,2141,1
6139,4005,1
6143,1444,0
6147,0,0
6151,1485,0
6155,4035,1
6159,2156,1
6163,0,0
6167,868,0
6171,4031,1
6175,2825,1
6179,0,0
6183,393,0
6187,4023,1
6191,3407,1
6195,0,0
6199,49,0
6203,3775,1
6207,3785,1
6211,0,0
6215,0,0
6219,2868,1
6223,3926,1
6227,526,0
6231,0,0
6235,2162,1
6239,3963,1
6243,1416,0
6247,0,0
6251,1511,0
6255,4048,1
6259,2155,1
6263,144,0
6267,885,0
6271,3993,1
6275,2799,1
6279,0,0
6283,396,0
6287,4041,1
6291,3392,1
6295,0,0
6299,72,0
6303,3794,1
6307,3814,1
6311,0,0
6315,0,0
6319,2873,1
6323,3936,1
6327,544,0
6331,0,0
6335,2169,1
6339,3974,1
6343,1414,0
6347,0,0
6351,1530,0
6355,4010,1
6359,2114,1
6363,118,0
6367,913,0
6371,4056,1
6375,2777,1
6379,192,0
6383,469,0
6387,4057,1
6391,3348,1
6395,0,0
6399,75,0
6403,3856,1
6407,3766,1
6411,0,0
6415,0,0
6419,2921,1
6423,3905,1
6427,472,0
6431,0,0
6435,2208,1
6439,3970,1
6443,1350,0
6447,0,0
6451,1569,0
6455,3990,1
6459,2077,1
6463,0,0
6467,985,0
6471,4077,1
6475,2756,1
6479,96,0
6483,456,0
6487,4066,1
6491,3330,1
6495,0,0
6499,111,0
6503,3854,1
6507,3777,1
6511,0,0
6515,0,0
6519,2957,1
6523,3914,1
6527,485,0
6531,0,0
6535,2250,1
6539,3976,1
6543,1304,0
6547,0,0
6551,1587,0
6555,4007,1
6559,2044,1
6563,45,0
6567,968,0
6571,4008,1
6575,2732,1
6579,0,0
6583,489,0
6587,4059,1
6591,3307,1
6595,0,0
6599,129,0
6603,3985,1
6607,3769,1
6611,0,0
6615,0,0
6619,3003,1
6623,3859,1
6627,436,0
6631,0,0
6635,2285,1
6639,3976,1
6643,1276,0
6647,0,0
6651,1609,0
6655,4018,1
6659,2004,1
6663,0,0
6667,994,0
6671,4015,1
6675,2692,1
6679,0,0
6683,517,0
6687,4073,1
6691,3272,1
6695,0,0
6699,147,0
6703,3962,1
6707,3756,1
6711,0,0
6715,0,0
6719,3041,1
6723,3899,1
6727,363,0
6731,0,0
6735,2313,1
6739,3961,1
6743,1227,0
6747,0,0
6751,1663,0
6755,3984,1
6759,1972,1
6763,0,0
6767,1020,0
6771,3951,1
6775,2636,1
6779,0,0
6783,553,0
6787,3897,1
6791,3287,1
6795,0,0
6799,182,0
6803,3983,1
6807,3729,1
6811,0,0
6815,0,0
6819,3111,1
6823,3901,1
6827,284,0
6831,0,0
6835,2368,1
6839,3959,1
6843,1195,0
6847,0,0
6851,1686,0
6855,3972,1
6859,1952,0
6863,0,0
6867,1036,0
6871,3974,1
6875,2586,1
6879,0,0
6883,539,0
6887,3874,1
6891,3224,1
6895,0,0
6899,175,0
6903,3953,1
6907,3756,1
6911,0,0
6915,0,0
6919,3061,1
6923,3893,1
6927,344,0
6931,0,0
6935,2296,1
6939,3941,1
6943,1221,0
6947,0,0
6951,1670,0
6955,3985,1
6959,1945,0
6963,0,0
6967,1051,0
6971,3685,1
6975,2599,1
6979,0,0
6983,569,0
6987,4050,1
6991,3181,1
6995,0,0
6999,186,0
7003,3983,1
7007,3714,1
7011,0,0
7015,0,0
7019,3162,1
7023,3902,1
7027,256,0
7031,0,0
7035,2404,1
7039,3986,1
7043,1177,0
7047,0,0
7051,1726,0
7055,4009,1
7059,1869,0
7063,0,0
7067,1120,0
7071,3651,1
7075,2568,1
7079,0,0
7083,540,0
7087,4036,1
7091,3176,1
7095,43,0
7099,212,0
7103,3991,1
7107,3705,1
7111,0,0
7115,0,0
7119,3251,1
7123,3903,1
7127,179,0
7131,0,0
7135,2449,1
7139,3971,1
7143,1089,0
7147,0,0
7151,1788,0
7155,4009,1
7159,1838,0
7163,0,0
7167,1163,0
7171,4059,1
7175,2540,1
7179,0,0
7183,614,0
7187,4053,1
7191,3133,1
7195,0,0
7199,218,0
7203,4019,1
7207,3716,1
7211,0,0
7215,0,0
7219,3282,1
7223,3854,1
7227,125,0
7231,0,0
7235,2501,1
7239,3981,1
7243,1048,0
7247,0,0
7251,1795,0
7255,4005,1
7259,1801,0
7263,0,0
7267,1185,0
7271,4068,1
7275,2491,1
7279,0,0
7283,667,0
7287,4055,1
7291,3105,1
7295,0,0
7299,263,0
7303,4014,1
7307,3674,1
7311,0,0
7315,0,0
7319,3333,1
7323,3891,1
7327,73,0
7331,0,0
7335,2522,1
7339,3969,1
7343,991,0
7347,0,0
7351,1827,0
7355,4002,1
7359,1751,0
7363,0,0
7367,1201,0
7371,4064,1
7375,2486,1
7379,0,0
7383,680,0
7387,4047,1
7391,3078,1
7395,0,0
7399,260,0
7403,4038,1
7407,3646,1
7411,0,0
7415,0,0
7419,3371,1
7423,3895,1
7427,51,0
7431,0,0
7435,2559,1
7439,3934,1
7443,920,0
7447,0,0
7451,1844,0
7455,4028,1
7459,1732,0
7463,0,0
7467,1216,0
7471,4041,1
7475,2495,1
7479,0,0
7483,690,0
7487,3829,1
7491,3053,1
7495,0,0
7499,241,0
7503,4053,1
7507,3638,1
7511,0,0
7515,0,0
7519,3403,1
7523,3877,1
7527,20,0
7531,0,0
7535,2586,1
7539,3944,1
7543,912,0
7547,0,0
7551,1868,0
7555,4020,1
7559,1690,0
7563,0,0
7567,1253,0
7571,4021,1
7575,2417,1
7579,0,0
7583,696,0
7587,4066,1
7591,3006,1
7595,0,0
7599,261,0
7603,4049,1
7607,3627,1
7611,0,0
7615,0,0
7619,3460,1
7623,3906,1
7627,3,0
7631,0,0
7635,2610,1
7639,3963,1
7643,862,0
7647,0,0
7651,1926,0
7655,4006,1
7659,1691,0
7663,0,0
7667,1270,0
7671,3930,1
7675,2387,1
7679,0,0
7683,713,0
7687,4048,1
7691,3004,1
7695,0,0
7699,281,0
7703,4038,1
7707,3588,1
7711,0,0
7715,0,0
7719,3469,1
7723,3849,1
7727,0,0
7731,0,0
7735,2652,1
7739,3970,1
7743,812,0
7747,0,0
7751,1931,0
7755,3964,1
7759,1649,0
7763,0,0
7767,1294,0
7771,3883,1
7775,2335,1
7779,0,0
7783,767,0
7787,4095,1
7791,2971,1
7795,0,0
7799,298,0
7803,4044,1
7807,3551,1
7811,0,0
7815,3,0
7819,3533,1
7823,3862,1
7827,0,0
7831,0,0
7835,2693,1
7839,3956,1
7843,797,0
7847,0,0
7851,1975,0
7855,4006,1
7859,1614,0
7863,0,0
7867,1339,0
7871,3764,1
7875,2324,1
7879,0,0
7883,766,0
7887,4083,1
7891,2944,1
7895,64,0
7899,304,0
7903,4051,1
7907,3539,1
7911,0,0
7915,0,0
7919,3522,1
7923,3841,1
7927,0,0
7931,0,0
7935,2684,1
7939,3960,1
7943,785,0
7947,0,0
7951,1963,0
7955,3988,1
7959,1581,0
7963,0,0
7967,1331,0
7971,4043,1
7975,2309,1
7979,0,0
7983,794,0
7987,4050,1
7991,2912,1
7995,0,0
7999,316,0
8003,4051,1
8007,3530,1
8011,0,0
8015,1,0
8019,3586,1
8023,3837,1
8027,0,0
8031,0,0
8035,2726,1
8039,3933,1
8043,724,0
8047,0,0
8051,2026,0
8055,3973,1
8059,1578,0
8063,0,0
8067,1372,0
8071,4038,1
8075,2263,1
8079,0,0
8083,805,0
8087,4074,1
8091,2870,1
8095,0,0
8099,336,0
8103,4012,1
8107,3539,1
8111,0,0
8115,11,0
8119,3672,1
8123,3817,1
8127,0,0
8131,0,0
8135,2775,1
8139,3932,1
8143,641,0
8147,0,0
8151,2079,1
8155,3962,1
8159,1498,0
8163,0,0
8167,1429,0
8171,4015,1
8175,2220,1
8179,0,0
8183,853,0
8187,3999,1
8191,2830,1
8195,0,0
8199,371,0
8203,4033,1
8207,3513,1
8211,0,0
8215,21,0
8219,3776,1
8223,3813,1
8227,0,0
8231,0,0
8235,2853,1
8239,3954,1
8243,587,0
8247,0,0
8251,2155,1
8255,3987,1
8259,1434,0
8263,0,0
8267,1503,0
8271,4001,1
8275,2171,1
8279,14,0
8283,890,0
8287,4073,1
8291,2813,1
8295,0,0
8299,397,0
8303,4040,1
8307,3465,1
8311,0,0
8315,39,0
8319,3868,1
8323,3813,1
8327,0,0
8331,0,0
8335,2930,1
8339,3935,1
8343,496,0
8347,0,0
8351,2201,1
8355,3956,1
8359,1361,0
8363,0,0
8367,1544,0
8371,4026,1
8375,2118,1
8379,0,0
8383,931,0
8387,4050,1
8391,2798,1
8395,0,0
8399,413,0
8403,4024,1
8407,3416,1
8411,0,0
8415,53,0
8419,3932,1
8423,3797,1
8427,0,0
8431,0,0
8435,2979,1
8439,3921,1
8443,472,0
8447,0,0
8451,2226,1
8455,3960,1
8459,1323,0
8463,0,0
8467,1567,0
8471,3957,1
8475,2073,1
8479,0,0
8483,935,0
8487,3591,1
8491,2745,1
8495,0,0
8499,422,0
8503,4049,1
8507,3395,1
8511,0,0
8515,53,0
8519,3932,1
8523,3765,1
8527,0,0
8531,0,0
8535,3052,1
8539,3922,1
8543,421,0
8547,0,0
8551,2255,1
8555,4008,1
8559,1302,0
8563,0,0
8567,1592,0
8571,3985,1
8575,2065,1
8579,0,0
8583,971,0
8587,4062,1
8591,2737,1
8595,0,0
8599,431,0
8603,4053,1
8607,3366,1
8611,0,0
8615,89,0
8619,3921,1
8623,3788,1
8627,0,0
8631,0,0
8635,3043,1
8639,3897,1
8643,356,0
8647,0,0
8651,2274,1
8655,3968,1
8659,1259,0
8663,0,0
8667,1649,0
8671,4013,1
8675,2016,1
8679,142,0
8683,1001,0
8687,4070,1
8691,2727,1
8695,71,0
8699,471,0
8703,4050,1
8707,3309,1
8711,0,0
8715,102,0
8719,3967,1
8723,3779,1
8727,0,0
8731,0,0
8735,3098,1
8739,3912,1
8743,337,0
8747,0,0
8751,2300,1
8755,3949,1
8759,1225,0
8763,0,0
8767,1683,0
8771,4012,1
8775,2003,1
8779,78,0
8783,1016,0
8787,4049,1
8791,2671,1
8795,0,0
8799,500,0
8803,4036,1
8807,3310,1
8811,0,0
8815,117,0
8819,3988,1
8823,3780,1
8827,0,0
8831,0,0
8835,3105,1
8839,3930,1
8843,344,0
8847,0,0
8851,2345,1
8855,3945,1
8859,1225,0
8863,0,0
8867,1666,0
8871,3951,1
8875,1977,1
8879,0,0
8883,1014,0
8887,3696,1
8891,2695,1
8895,0,0
8899,514,0
8903,4050,1
8907,3302,1
8911,0,0
8915,128,0
8919,3995,1
8923,3761,1
8927,0,0
8931,0,0
8935,3105,1
8939,3939,1
8943,342,0
8947,0,0
8951,2325,1
8955,3992,1
8959,1240,0
8963,0,0
8967,1646,0
8971,3987,1
8975,1980,1
8979,0,0
8983,1042,0
8987,4060,1
8991,2685,1
8995,0,0
8999,516,0
9003,4047,1
9007,3253,1
9011,0,0
9015,146,0
9019,4000,1
9023,3745,1
9027,0,0
9031,0,0
9035,3113,1
9039,3901,1
9043,307,0
9047,0,0
9051,2356,1
9055,4000,1
9059,1173,0
9063,0,0
9067,1693,0
9071,3986,1
9075,1905,0
9079,0,0
9083,1054,0
9087,3988,1
9091,2645,1
9095,0,0
9099,594,0
9103,4054,1
9107,3232,1
9111,0,0
9115,171,0
9119,4008,1
9123,3727,1
9127,0,0
9131,0,0
9135,3197,1
9139,3932,1
9143,230,0
9147,0,0
9151,2426,1
9155,3984,1
9159,1128,0
9163,0,0
9167,1770,0
9171,3970,1
9175,1893,0
9179,0,0
9183,1095,0
9187,3831,1
9191,2580,1
9195,0,0
9199,581,0
9203,4071,1
9207,3248,1
9211,0,0
9215,189,0
9219,4003,1
9223,3730,1
9227,0,0
9231,0,0
9235,3276,1
9239,3906,1
9243,177,0
9247,0,0
9251,2455,1
9255,3996,1
9259,1095,0
9263,0,0
9267,1776,0
9271,3987,1
9275,1855,0
9279,0,0
9283,1127,0
9287,4026,1
9291,2567,1
9295,0,0
9299,586,0
9303,4075,1
9307,3180,1
9311,0,0
9315,211,0
9319,4005,1
9323,3710,1
9327,0,0
9331,0,0
9335,3282,1
9339,3915,1
9343,137,0
9347,0,0
9351,2493,1
9355,3950,1
9359,1054,0
9363,0,0
9367,1808,0
9371,3956,1
9375,1817,0
9379,0,0
9383,1150,0
9387,3610,1
9391,2551,1
9395,0,0
9399,649,0
9403,4056,1
9407,3157,1
9411,0,0
9415,222,0
9419,4029,1
9423,3684,1
9427,0,0
9431,0,0
9435,3355,1
9439,3902,1
9443,95,0
9447,0,0
9451,2497,1
9455,3957,1
9459,1016,0
9463,0,0
9467,1835,0
9471,3976,1
9475,1803,0
9479,0,0
9483,1177,0
9487,4031,1
9491,2539,1
9495,0,0
9499,649,0
9503,4056,1
9507,3136,1
9511,0,0
9515,239,0
9519,4016,1
9523,3680,1
9527,0,0
9531,0,0
9535,3403,1
9539,3880,1
9543,73,0
9547,0,0
9551,2521,1
9555,3966,1
9559,1010,0
9563,0,0
9567,1862,0
9571,3982,1
9575,1799,0
9579,0,0
9583,1218,0
9587,4038,1
9591,2492,1
9595,0,0
9599,670,0
9603,4046,1
9607,3113,1
9611,0,0
9615,242,0
9619,4014,1
9623,3674,1
9627,0,0
9631,0,0
9635,3429,1
9639,3875,1
9643,32,0
9647,0,0
9651,2579,1
9655,3942,1
9659,924,0
9663,0,0
9667,1873,0
9671,3970,1
9675,1737,0
9679,0,0
9683,1216,0
9687,4018,1
9691,2484,1
9695,3,0
9699,684,0
9703,4063,1
9707,3071,1
9711,0,0
9715,258,0
9719,4035,1
9723,3670,1
9727,0,0
9731,0,0
9735,3455,1
9739,3866,1
9743,13,0
9747,0,0
9751,2598,1
9755,3943,1
9759,901,0
9763,0,0
9767,1908,0
9771,4005,1
9775,1728,0
9779,0,0
9783,1244,0
9787,4045,1
9791,2462,1
9795,200,0
9799,712,0
9803,4070,1
9807,3096,1
9811,0,0
9815,267,0
9819,4008,1
9823,3646,1
9827,0,0
9831,0,0
9835,3571,1
9839,3897,1
9843,18,0
9847,0,0
9851,2609,1
9855,3966,1
9859,930,0
9863,0,0
9867,1895,0
9871,3979,1
9875,1709,0
9879,0,0
9883,1237,0
9887,4059,1
9891,2467,1
9895,74,0
9899,684,0
9903,4071,1
9907,3068,1
9911,0,0
9915,253,0
9919,4039,1
9923,3671,1
9927,0,0
9931,0,0
9935,3414,1
9939,3911,1
9943,30,0
9947,0,0
9951,2575,1
9955,3966,1
9959,978,0
9963,0,0
9967,1872,0
9971,4019,1
9975,1744,0
9979,0,0
9983,1246,0
9987,4035,1
9991,2457,1
9995,176,0
9999,673,0
10003,4058,1
10007,3062,1
10011,0,0
10015,254,0
10019,4029,1
10224,2209,1
10227,0,0
10231,0,0
10235,3499,1
10239,3914,1
10243,7,0
10247,0,0
10251,2650,1
10255,3995,1
10259,815,0
10263,0,0
10267,1966,0
10271,4042,1
10275,1636,0
10279,0,0
10283,1312,0
10287,4064,1
10291,2362,1
10295,179,0
10299,777,0
10303,4059,1
10307,2971,1
10311,0,0
10315,321,0
10319,4037,1
10323,3596,1
10327,0,0
10331,0,0
10335,3520,1
10339,3882,1
10343,0,0
10347,0,0
10351,2684,1
10355,3971,1
10359,766,0
10363,0,0
10367,1973,0
10371,4027,1
10375,1598,0
10379,0,0
10383,1347,0
10387,4059,1
10391,2329,1
10395,148,0
10399,781,0
10403,4079,1
10407,2954,1
10411,0,0
10415,305,0
10419,4022,1
10423,3560,1
10427,0,0
10431,0,0
10435,3575,1
10439,3849,1
10443,0,0
10447,0,0
10451,2733,1
10455,3988,1
10459,736,0
10463,0,0
10467,2030,0
10471,4014,1
10475,1543,0
10479,0,0
10483,1357,0
10487,4086,1
10491,2304,1
10495,0,0
10499,823,0
10503,4088,1
10507,2931,1
10511,0,0
10515,346,0
10519,4054,1
10523,3554,1
10527,0,0
10531,4,0
10535,3661,1
10539,3866,1
10543,0,0
10547,0,0
10551,2777,1
10555,3952,1
10559,681,0
10563,0,0
10567,2045,0
10571,4031,1
10575,1520,0
10579,0,0
10583,1416,0
10587,4046,1
10591,2262,1
10595,0,0
10599,826,0
10603,4092,1
10607,2879,1
10611,0,0
10615,353,0
10619,4071,1
10623,3538,1
10627,0,0
10631,22,0
10635,3688,1
10639,3845,1
10643,0,0
10647,0,0
10651,2806,1
10655,3956,1
10659,652,0
10663,0,0
10667,2081,1
10671,4003,1
10675,1471,0
10679,0,0
10683,1421,0
10687,4065,1
10691,2229,1
10695,141,0
10699,857,0
10703,4067,1
10707,2875,1
10711,0,0
10715,354,0
10719,4055,1
10723,3503,1
10727,0,0
10731,24,0
10735,3746,1
10739,3827,1
10743,0,0
10747,0,0
10751,2839,1
10755,3969,1
10759,612,0
10763,0,0
10767,2143,1
10771,3990,1
10775,1446,0
10779,0,0
10783,1467,0
10787,4023,1
10791,2155,1
10795,0,0
10799,887,0
10803,3851,1
10807,2868,1
10811,0,0
10815,383,0
10819,4048,1
10823,3485,1
10827,0,0
10831,42,0
10835,3856,1
10839,3836,1
10843,0,0
10847,0,0
10851,2896,1
10855,3957,1
10859,581,0
10863,0,0
10867,2153,1
10871,3997,1
10875,1419,0
10879,0,0
10883,1498,0
10887,3921,1
10891,2170,1
10895,0,0
10899,946,0
10903,4068,1
10907,2799,1
10911,1,0
10915,403,0
10919,4059,1
10923,3456,1
10927,0,0
10931,35,0
10935,3856,1
10939,3843,1
10943,0,0
10947,0,0
10951,2929,1
10955,3923,1
10959,527,0
10963,0,0
10967,2183,1
10971,4004,1
10975,1369,0
10979,0,0
10983,1522,0
10987,4004,1
10991,2104,1
10995,0,0
10999,931,0
11003,3756,1
11007,2787,1
11011,0,0
11015,399,0
11019,4082,1
11023,3416,1
11027,0,0
11031,58,0
11035,3921,1
11039,3836,1
11043,0,0
11047,0,0
11051,2963,1
11055,3933,1
11059,489,0
11063,0,0
11067,2225,1
11071,3993,1
11075,1321,0
11079,0,0
11083,1558,0
11087,4005,1
11091,2093,1
11095,0,0
11099,954,0
11103,3995,1
11107,2779,1
11111,0,0
11115,446,0
11119,4090,1
11123,3414,1
11127,0,0
11131,56,0
11135,3948,1
11139,3823,1
11143,0,0
11147,0,0
11151,2988,1
11155,3935,1
11159,454,0
11163,0,0
11167,2250,1
11171,3985,1
11175,1326,0
11179,0,0
11183,1589,0
11187,3905,1
11191,2058,1
11195,0,0
11199,963,0
11203,4047,1
11207,2758,1
11211,0,0
11215,437,0
11219,4071,1
11223,3377,1
11227,0,0
11231,78,0
11235,3963,1
11239,3792,1
11243,0,0
11247,0,0
11251,3027,1
11255,3964,1
11259,413,0
11263,0,0
11267,2274,1
11271,3992,1
11275,1288,0
11279,0,0
11283,1603,0
11287,4010,1
11291,2066,1
11295,0,0
11299,974,0
11303,4068,1
11307,2749,1
11311,0,0
11315,443,0
11319,4071,1
11323,3360,1
11327,0,0
11331,85,0
11335,3963,1
11339,3811,1
11343,0,0
11347,0,0
11351,3031,1
11355,3968,1
11359,406,0
11363,0,0
11367,2278,1
11371,4022,1
11375,1283,0
11379,0,0
11383,1613,0
11387,3989,1
11391,2022,1
11395,0,0
11399,1009,0
11403,4055,1
11407,2735,1
11411,145,0
11415,486,0
11419,4081,1
11423,3307,1
11427,0,0
11431,97,0
11435,3930,1
11439,3778,1
11443,0,0
11447,0,0
11451,3032,1
11455,3945,1
11459,375,0
11463,0,0
11467,2294,1
11471,3968,1
11475,1241,0
11479,0,0
11483,1626,0
11487,4031,1
11491,2007,1
11495,0,0
11499,981,0
11503,4066,1
11507,2724,1
11511,22,0
11515,490,0
11519,4046,1
11523,3292,1
11527,0,0
11531,107,0
11535,3983,1
11539,3752,1
11543,0,0
11547,0,0
11551,3077,1
11555,3912,1
11559,311,0
11563,0,0
11567,2313,1
11571,4004,1
11575,1204,0
11579,0,0
11583,1675,0
11587,4003,1
11591,1970,1
11595,0,0
11599,995,0
11603,4066,1
11607,2688,1
11611,0,0
11615,504,0
11619,4062,1
11623,3292,1
11627,0,0
11631,136,0
11635,3981,1
11639,3743,1
11643,0,0
11647,0,0
11651,3105,1
11655,3918,1
11659,282,0
11663,0,0
11667,2340,1
11671,3986,1
11675,1164,0
11679,0,0
11683,1705,0
11687,3998,1
11691,1949,0
11695,0,0
11699,1029,0
11703,3926,1
11707,2646,1
11711,0,0
11715,592,0
11719,4066,1
11723,3243,1
11727,0,0
11731,146,0
11735,3973,1
11739,3751,1
11743,0,0
11747,0,0
11751,3099,1
11755,3904,1
11759,289,0
11763,0,0
11767,2354,1
11771,3948,1
11775,1177,0
11779,0,0
11783,1685,0
11787,3964,1
11791,1928,0
11795,0,0
11799,1035,0
11803,4051,1
11807,2662,1
11811,0,0
11815,513,0
11819,4042,1
11823,3228,1
11827,0,0
11831,137,0
11835,3921,1
11839,3735,1
11843,0,0
11847,0,0
11851,3017,1
11855,3874,1
11859,270,0
11863,0,0
11867,2287,1
11871,3969,1
11875,1160,0
11879,0,0
11883,1639,0
11887,3993,1
11891,1953,0
11895,0,0
11899,1007,0
11903,4067,1
11907,2663,1
11911,156,0
11915,490,0
11919,4053,1
11923,3233,1
11927,0,0
11931,132,0
11935,3806,1
11939,3737,1
11943,0,0
11947,0,0
11951,2937,1
11955,3921,1
11959,352,0
11963,0,0
11967,2307,1
11971,3971,1
11975,1180,0
11979,0,0
11983,1674,0
11987,4015,1
11991,1958,1
11995,0,0
11999,1028,0
12003,4039,1
12007,2637,1
12011,0,0
12015,520,0
12019,4055,1
12023,3210,1
12027,0,0
12031,156,0
12035,3861,1
12039,3709,1
12043,0,0
12047,0,0
12051,3055,1
12055,3890,1
12059,266,0
12063,0,0
12067,2290,1
12071,3971,1
12075,1114,0
12079,0,0
12083,1675,0
12087,4003,1
12091,1880,0
12095,0,0
12099,1050,0
12103,4004,1
12107,2582,1
12111,0,0
12115,564,0
12119,3962,1
12123,3163,1
12127,0,0
12131,183,0
12135,3967,1
12139,3685,1
12143,0,0
12147,0,0
12151,3117,1
12155,3880,1
12159,182,0
12163,0,0
12167,2392,1
12171,3943,1
12175,1089,0
12179,0,0
12183,1721,0
12187,4018,1
12191,1865,0
12195,0,0
12199,1113,0
12203,4039,1
12207,2540,1
12211,0,0
12215,618,0
12219,3857,1
12223,3148,1
12227,0,0
12231,211,0
12235,4003,1
12239,3711,1
12243,0,0
12247,0,0
12251,3175,1
12255,3891,1
12259,168,0
12263,0,0
12267,2430,1
12271,3956,1
12275,1069,0
12279,0,0
12283,1787,0
12287,3983,1
12291,1816,0
12295,0,0
12299,1150,0
12303,3721,1
12307,2504,1
12311,0,0
12315,618,0
12319,4044,1
12323,3083,1
12327,0,0
12331,216,0
12335,4006,1
12339,3626,1
12343,0,0
12347,0,0
12351,3262,1
12355,3884,1
12359,73,0
12363,0,0
12367,2459,1
12371,3917,1
12375,992,0
12379,0,0
12383,1790,0
12387,4018,1
12391,1765,0
12395,0,0
12399,1170,0
12403,4063,1
12407,2485,1
12411,268,0
12415,641,0
12419,4048,1
12423,3088,1
12427,0,0
12431,224,0
12435,3999,1
12439,3636,1
12443,0,0
12447,0,0
12451,3236,1
12455,3881,1
12459,106,0
12463,0,0
12467,2473,1
12471,3907,1
12475,999,0
12479,0,0
12483,1801,0
12487,3999,1
12491,1763,0
12495,0,0
12499,1151,0
12503,4038,1
12507,2486,1
12511,0,0
12515,652,0
12519,4018,1
12523,3077,1
12527,0,0
12531,231,0
12535,3959,1
12539,3645,1
12543,0,0
12547,0,0
12551,3282,1
12555,3877,1
12559,59,0
12563,0,0
12567,2495,1
12571,3946,1
12575,950,0
12579,0,0
12583,1852,0
12587,3994,1
12591,1717,0
12595,0,0
12599,1199,0
12603,4044,1
12607,2423,1
12611,0,0
12615,684,0
12619,4027,1
12623,3054,1
12627,0,0
12631,261,0
12635,4014,1
12639,3652,1
12643,0,0
12647,0,0
12651,3367,1
12655,3882,1
12659,12,0
12663,0,0
12667,2546,1
12671,3947,1
12675,882,0
12679,0,0
12683,1884,0
12687,4019,1
12691,1669,0
12695,0,0
12699,1247,0
12703,4056,1
12707,2411,1
12711,0,0
12715,724,0
12719,4059,1
12723,3017,1
12727,0,0
12731,291,0
12735,4062,1
12739,3620,1
12743,0,0
12747,0,0
12751,3552,1
12755,3870,1
12759,0,0
12763,0,0
12767,2668,1
12771,3960,1
12775,799,0
12779,0,0
12783,1978,0
12787,3996,1
12791,1619,0
12795,0,0
12799,1332,0
12803,4051,1
12807,2353,1
12811,214,0
12815,773,0
12819,4059,1
12823,2991,1
12827,0,0
12831,318,0
12835,4051,1
12839,3598,1
12843,0,0
12847,0,0
12851,3493,1
12855,3894,1
12859,0,0
12863,0,0
12867,2680,1
12871,3968,1
12875,766,0
12879,0,0
12883,2001,0
12887,3998,1
12891,1591,0
12895,0,0
12899,1311,0
12903,4050,1
12907,2349,1
12911,0,0
12915,745,0
12919,3912,1
12923,2964,1
12927,0,0
12931,285,0
12935,4034,1
12939,3578,1
12943,0,0
12947,0,0
12951,3545,1
12955,3871,1
12959,0,0
12963,0,0
12967,2703,1
12971,3974,1
12975,770,0
12979,0,0
12983,1964,0
12987,3993,1
12991,1577,0
12995,0,0
12999,1320,0
13003,3938,1
13007,2274,1
13011,0,0
13015,769,0
13019,3688,1
13023,2925,1
13027,0,0
13031,305,0
13035,4040,1
13039,3564,1
13043,0,0
13047,0,0
13051,3574,1
13055,3862,1
13059,0,0
13063,0,0
13067,2715,1
13071,3948,1
13075,708,0
13079,0,0
13083,2010,0
13087,3987,1
13091,1546,0
13095,0,0
13099,1360,0
13103,4057,1
13107,2290,1
13111,0,0
13115,832,0
13119,3759,1
13123,2917,1
13127,0,0
13131,345,0
13135,4050,1
13139,3563,1
13143,0,0
13147,10,0
13151,3714,1
13155,3836,1
13159,0,0
13163,0,0
13167,2821,1
13171,3965,1
13175,622,0
13179,0,0
13183,2098,1
13187,4016,1
13191,1473,0
13195,0,0
13199,1448,0
13203,4044,1
13207,2235,1
13211,196,0
13215,876,0
13219,4059,1
13223,2821,1
13227,0,0
13231,366,0
13235,4041,1
13239,3513,1
13243,0,0
13247,15,0
13251,3820,1
13255,3833,1
13259,0,0
13263,0,0
13267,2881,1
13271,3961,1
13275,558,0
13279,0,0
13283,2140,1
13287,4021,1
13291,1428,0
13295,0,0
13299,1478,0
13303,4050,1
13307,2194,1
13311,0,0
13315,906,0
13319,4069,1
13323,2854,1
13327,0,0
13331,401,0
13335,4058,1
13339,3464,1
13343,0,0
13347,44,0
13351,3898,1
13355,3851,1
13359,0,0
13363,0,0
13367,2941,1
13371,3969,1
13375,536,0
13379,0,0
13383,2195,1
13387,4017,1
13391,1384,0
13395,0,0
13399,1530,0
13403,4050,1
13407,2166,1
13411,92,0
13415,952,0
13419,4056,1
13423,2845,1
13427,0,0
13431,407,0
13435,4061,1
13439,3449,1
13443,0,0
13447,53,0
13451,3905,1
13455,3838,1
13459,0,0
13463,0,0
13467,2935,1
13471,3933,1
13475,513,0
13479,0,0
13483,2187,1
13487,3956,1
13491,1364,0
13495,0,0
13499,1523,0
13503,4000,1
13507,2139,1
13511,0,0
13515,924,0
13519,3943,1
13523,2811,1
13527,0,0
13531,431,0
13535,4033,1
13539,3435,1
13543,0,0
13547,71,0
13551,3922,1
13555,3824,1
13559,0,0
13563,0,0
13567,2961,1
13571,3948,1
13575,476,0
13579,0,0
13583,2201,1
13587,3993,1
13591,1339,0
13595,0,0
13599,1546,0
13603,4033,1
13607,2098,1
13611,98,0
13615,936,0
13619,4081,1
13623,2704,1
13627,0,0
13631,433,0
13635,4059,1
13639,3397,1
13643,0,0
13647,81,0
13651,3926,1
13655,3802,1
13659,0,0
13663,0,0
13667,3022,1
13671,3935,1
13675,450,0
13679,0,0
13683,2252,1
13687,4005,1
13691,1320,0
13695,0,0
13699,1571,0
13703,3992,1
13707,2084,1
13711,0,0
13715,940,0
13719,4074,1
13723,2760,1
13727,0,0
13731,446,0
13735,4072,1
13739,3326,1
13743,0,0
13747,84,0
13751,3866,1
13755,3771,1
13759,0,0
13763,0,0
13767,2998,1
13771,3948,1
13775,405,0
13779,0,0
13783,2271,1
13787,3993,1
13791,1266,0
13795,0,0
13799,1597,0
13803,3997,1
13807,2045,1
13811,0,0
13815,975,0
13819,4065,1
13823,2733,1
13827,0,0
13831,460,0
13835,4074,1
13839,3332,1
13843,0,0
13847,109,0
13851,3994,1
13855,3780,1
13859,0,0
13863,0,0
13867,3048,1
13871,3937,1
13875,362,0
13879,0,0
13883,2305,1
13887,3980,1
13891,1252,0
13895,0,0
13899,1653,0
13903,3992,1
13907,2010,1
13911,3,0
13915,1001,0
13919,4079,1
13923,2704,1
13927,0,0
13931,495,0
13935,4056,1
13939,3317,1
13943,0,0
13947,133,0
13951,3963,1
13955,3759,1
13959,0,0
13963,0,0
13967,3085,1
13971,3937,1
13975,312,0
13979,0,0
13983,2323,1
13987,4034,1
13991,1210,0
13995,0,0
13999,1684,0
14003,4004,1
14007,1979,1
14011,89,0
14015,1034,0
14019,4068,1
14023,2674,1
14027,0,0
14031,503,0
14035,4062,1
14039,3319,1
14043,0,0
14047,148,0
14051,3998,1
14055,3783,1
14059,0,0
14063,0,0
14067,3128,1
14071,3926,1
14075,267,0
14079,0,0
14083,2337,1
14087,4009,1
14091,1165,0
14095,0,0
14099,1692,0
14103,4027,1
14107,1927,0
14111,0,0
14115,1058,0
14119,4012,1
14123,2679,1
14127,0,0
14131,539,0
14135,3966,1
14139,3245,1
14143,0,0
14147,153,0
14151,4008,1
14155,3758,1
14159,0,0
14163,0,0
14167,3168,1
14171,3927,1
14175,233,0
14179,0,0
14183,2376,1
14187,3961,1
14191,1145,0
14195,0,0
14199,1710,0
14203,4012,1
14207,1891,0
14211,0,0
14215,1072,0
14219,4055,1
14223,2588,1
14227,0,0
14231,553,0
14235,3939,1
14239,3224,1
14243,0,0
14247,169,0
14251,4022,1
14255,3742,1
14259,0,0
14263,0,0
14267,3196,1
14271,3932,1
14275,219,0
14279,0,0
14283,2388,1
14287,3982,1
14291,1134,0
14295,0,0
14299,1717,0
14303,4024,1
14307,1902,0
14311,0,0
14315,1020,0
14319,4094,1
14323,2609,1
14327,97,0
14331,561,0
14335,4055,1
14339,3201,1
14343,0,0
14347,172,0
14351,4003,1
14355,3726,1
14359,0,0
14363,0,0
14367,3190,1
14371,3919,1
14375,231,0
14379,0,0
14383,2367,1
14387,4007,1
14391,1132,0
14395,0,0
14399,1730,0
14403,4007,1
14407,1909,0
14411,21,0
14415,1062,0
14419,4050,1
14423,2623,1
14427,0,0
14431,541,0
14435,4054,1
14439,3204,1
14443,0,0
14447,175,0
14451,3962,1
14455,3738,1
14459,0,0
14463,0,0
14467,3036,1
14471,3917,1
14475,379,0
14479,0,0
14483,2222,1
14487,3974,1
14491,1268,0
14495,0,0
14499,1381,0
14503,3925,1
14507,2173,1
14511,0,0
14515,665,0
14519,3695,1
14523,2712,1
14527,0,0
14531,303,0
14535,3348,1
14539,3207,1
14543,0,0
14547,66,0
14551,2843,1
14555,3692,1
14559,150,0
14563,0,0
14567,2690,1
14571,3894,1
14575,311,0
14579,0,0
14583,2290,1
14587,3970,1
14591,1055,0
14595,0,0
14599,1747,0
14603,4003,1
14607,1813,0
14611,0,0
14615,1104,0
14619,4091,1
14623,2520,1
14627,0,0
14631,599,0
14635,4065,1
14639,3103,1
14643,0,0
14647,215,0
14651,3983,1
14655,3658,1
14659,0,0
14663,0,0
14667,3248,1
14671,3892,1
14675,85,0
14679,0,0
14683,2471,1
14687,3966,1
14691,958,0
14695,0,0
14699,1820,0
14703,3985,1
14707,1767,0
14711,0,0
14715,1152,0
14719,4049,1
14723,2488,1
14727,0,0
14731,668,0
14735,4062,1
14739,3075,1
14743,0,0
14747,235,0
14751,4019,1
14755,3637,1
14759,0,0
14763,0,0
14767,3318,1
14771,3904,1
14775,24,0
14779,0,0
14783,2555,1
14787,3960,1
14791,917,0
14795,0,0
14799,1880,0
14803,3997,1
14807,1708,0
14811,0,0
14815,1216,0
14819,4042,1
14823,2435,1
14827,0,0
14831,685,0
14835,4053,1
14839,3047,1
14843,0,0
14847,250,0
14851,4021,1
14855,3622,1
14859,0,0
14863,0,0
14867,3420,1
14871,3873,1
14875,5,0
14879,0,0
14883,2578,1
14887,3970,1
14891,904,0
14895,0,0
14899,1882,0
14903,3975,1
14907,1706,0
14911,0,0
14915,1254,0
14919,3755,1
14923,2419,1
14927,0,0
14931,677,0
14935,3904,1
14939,3044,1
14943,0,0
14947,260,0
14951,4013,1
14955,3623,1
14959,0,0
14963,0,0
14967,3474,1
14971,3879,1
14975,1,0
14979,0,0
14983,2636,1
14987,3935,1
14991,814,0
14995,0,0
14999,1934,0
15003,3995,1
15007,1645,0
15011,0,0
15015,1315,0
15019,4035,1
15023,2381,1
15027,108,0
15031,739,0
15035,4087,1
15039,2988,1
15043,0,0
15047,294,0
15051,4035,1
15055,3590,1
15059,0,0
15063,0,0
15067,3575,1
15071,3866,1
15075,0,0
15079,0,0
15083,2698,1
15087,3975,1
15091,732,0
15095,0,0
15099,2013,0
15103,4004,1
15107,1579,0
15111,0,0
15115,1358,0
15119,4038,1
15123,2340,1
15127,117,0
15131,774,0
15135,4075,1
15139,2968,1
15143,0,0
15147,314,0
15151,4039,1
15155,3570,1
15159,0,0
15163,0,0
15167,3712,1
15171,3858,1
15175,0,0
15179,0,0
15183,2766,1
15187,3971,1
15191,712,0
15195,0,0
15199,2045,0
15203,3974,1
15207,1529,0
15211,0,0
15215,1374,0
15219,4003,1
15223,2283,1
15227,0,0
15231,811,0
15235,3803,1
15239,2927,1
15243,0,0
15247,321,0
15251,4043,1
15255,3555,1
15259,0,0
15263,0,0
15267,3760,1
15271,3851,1
15275,0,0
15279,0,0
15283,2800,1
15287,3982,1
15291,652,0
15295,0,0
15299,2066,1
15303,4024,1
15307,1499,0
15311,0,0
15315,1388,0
15319,4031,1
15323,2267,1
15327,0,0
15331,832,0
15335,3693,1
15339,2905,1
15343,0,0
15347,353,0
15351,4026,1
15355,3533,1
15359,0,0
15363,5,0
15367,3808,1
15371,3853,1
15375,0,0
15379,0,0
15383,2887,1
15387,3904,1
15391,609,0
15395,0,0
15399,2110,1
15403,3979,1
15407,1444,0
15411,0,0
15415,1450,0
15419,4004,1
15423,2235,1
15427,0,0
15431,877,0
15435,3995,1
15439,2866,1
15443,0,0
15447,346,0
15451,4059,1
15455,3514,1
15459,0,0
15463,10,0
15467,3854,1
15471,3838,1
15475,0,0
15479,0,0
15483,2891,1
15487,3951,1
15491,564,0
15495,0,0
15499,2156,1
15503,3995,1
15507,1417,0
15511,0,0
15515,1470,0
15519,4031,1
15523,2131,1
15527,0,0
15531,883,0
15535,3740,1
15539,2834,1
15543,0,0
15547,371,0
15551,4069,1
15555,3501,1
15559,0,0
15563,28,0
15567,3880,1
15571,3837,1
15575,0,0
15579,0,0
15583,2915,1
15587,3940,1
15591,520,0
15595,0,0
15599,2180,1
15603,3989,1
15607,1407,0
15611,0,0
15615,1511,0
15619,3971,1
15623,2156,1
15627,0,0
15631,916,0
15635,3540,1
15639,2827,1
15643,0,0
15647,398,0
15651,4068,1
15655,3480,1
15659,0,0
15663,25,0
15667,3934,1
15671,3816,1
15675,0,0
15679,0,0
15683,2981,1
15687,3942,1
15691,481,0
15695,0,0
15699,2221,1
15703,3981,1
15707,1373,0
15711,0,0
15715,1558,0
15719,3882,1
15723,2115,1
15727,0,0
15731,933,0
15735,4059,1
15739,2806,1
15743,0,0
15747,405,0
15751,4067,1
15755,3455,1
15759,0,0
15763,45,0
15767,3955,1
15771,3816,1
15775,0,0
15779,0,0
15783,3025,1
15787,3960,1
15791,462,0
15795,0,0
15799,2241,1
15803,3989,1
15807,1334,0
15811,0,0
15815,1573,0
15819,3885,1
15823,2095,1
15827,0,0
15831,950,0
15835,4071,1
15839,2792,1
15843,96,0
15847,420,0
15851,4073,1
15855,3407,1
15859,0,0
15863,72,0
15867,3965,1
15871,3813,1
15875,0,0
15879,0,0
15883,3037,1
15887,3929,1
15891,406,0
15895,0,0
15899,2302,1
15903,4025,1
15907,1294,0
15911,0,0
15915,1615,0
15919,4049,1
15923,2066,1
15927,0,0
15931,986,0
15935,4033,1
15939,2778,1
15943,65,0
15947,472,0
15951,4073,1
15955,3379,1
15959,0,0
15963,78,0
15967,3964,1
15971,3809,1
15975,0,0
15979,0,0
15983,3091,1
15987,3941,1
15991,353,0
15995,0,0
15999,2312,1
16003,3991,1
16007,1252,0
16011,0,0
16015,1655,0
16019,3991,1
16023,2019,1
16027,0,0
16031,1023,0
16035,4062,1
16039,2731,1
16043,0,0
16047,474,0
16051,4086,1
16055,3345,1
16059,0,0
16063,103,0
16067,4004,1
16071,3798,1
16075,0,0
16079,0,0
16083,3143,1
16087,3936,1
16091,299,0
16095,0,0
16099,2355,1
16103,4003,1
16107,1227,0
16111,0,0
16115,1684,0
16119,4008,1
16123,1998,1
16127,0,0
16131,1054,0
16135,4062,1
16139,2713,1
16143,0,0
16147,498,0
16151,4075,1
16155,3327,1
16159,0,0
16163,120,0
16167,4017,1
16171,3790,1
16175,0,0
16179,0,0
16183,3185,1
16187,3957,1
16191,289,0
16195,0,0
16199,2382,1
16203,3993,1
16207,1210,0
16211,0,0
16215,1713,0
16219,4020,1
16223,1976,1
16227,0,0
16231,1031,0
16235,4066,1
16239,2705,1
16243,0,0
16247,529,0
16251,4062,1
16255,3284,1
16259,0,0
16263,133,0
16267,4009,1
16271,3776,1
16275,0,0
16279,0,0
16283,3226,1
16287,3929,1
16291,232,0
16295,0,0
16299,2428,1
16303,3999,1
16307,1137,0
16311,0,0
16315,1752,0
16319,4000,1
16323,1898,0
16327,0,0
16331,1086,0
16335,4095,1
16339,2651,1
16343,0,0
16347,529,0
16351,4067,1
16355,3271,1
16359,0,0
16363,162,0
16367,4019,1
16371,3777,1
16375,0,0
16379,0,0
16383,3286,1
16387,3920,1
16391,223,0
16395,0,0
16399,2458,1
16403,3959,1
16407,1103,0
16411,0,0
16415,1768,0
16419,4030,1
16423,1894,0
16427,0,0
16431,1115,0
16435,3805,1
16439,2623,1
16443,0,0
16447,577,0
16451,3928,1
16455,3241,1
16459,0,0
16463,190,0
16467,4043,1
16471,3717,1
16475,0,0
16479,0,0
16483,3336,1
16487,3910,1
16491,182,0
16495,0,0
16499,2479,1
16503,3958,1
16507,1081,0
16511,0,0
16515,1797,0
16519,4063,1
16523,1881,0
16527,0,0
16531,1131,0
16535,4050,1
16539,2622,1
16543,0,0
16547,602,0
16551,4084,1
16555,3210,1
16559,0,0
16563,199,0
16567,4034,1
16571,3745,1
16575,0,0
16579,0,0
16583,3339,1
16587,3920,1
16591,102,0
16595,0,0
16599,2513,1
16603,4010,1
16607,1036,0
16611,0,0
16615,1840,0
16619,4016,1
16623,1824,0
16627,0,0
16631,1149,0
16635,4073,1
16639,2565,1
16643,158,0
16647,651,0
16651,4086,1
16655,3177,1
16659,0,0
16663,227,0
16667,4035,1
16671,3729,1
16675,0,0
16679,0,0
16683,3395,1
16687,3908,1
16691,73,0
16695,0,0
16699,2560,1
16703,4007,1
16707,991,0
16711,0,0
16715,1858,0
16719,4017,1
16723,1762,0
16727,0,0
16731,1198,0
16735,4070,1
16739,2529,1
16743,0,0
16747,646,0
16751,4092,1
16755,3134,1
16759,0,0
16763,242,0
16767,4036,1
16771,3701,1
16775,0,0
16779,0,0
16783,3447,1
16787,3911,1
16791,18,0
16795,0,0
16799,2585,1
16803,3977,1
16807,934,0
16811,0,0
16815,1872,0
16819,4016,1
16823,1745,0
16827,0,0
16831,1224,0
16835,4040,1
16839,2506,1
16843,0,0
16847,686,0
16851,3906,1
16855,3090,1
16859,0,0
16863,254,0
16867,4051,1
16871,3665,1
16875,0,0
16879,0,0
16883,3524,1
16887,3892,1
16891,5,0
16895,0,0
16899,2630,1
16903,3957,1
16907,888,0
16911,0,0
16915,1956,0
16919,4023,1
16923,1684,0
16927,0,0
16931,1280,0
16935,3721,1
16939,2439,1
16943,0,0
16947,707,0
16951,4073,1
16955,3075,1
16959,0,0
16963,268,0
16967,4080,1
16971,3647,1
16975,0,0
16979,0,0
16983,3578,1
16987,3889,1
16991,0,0
16995,0,0
16999,2701,1
17003,3957,1
17007,855,0
17011,0,0
17015,1949,0
17019,4000,1
17023,1640,0
17027,0,0
17031,1287,0
17035,4010,1
17039,2410,1
17043,0,0
17047,731,0
17051,3747,1
17055,3050,1
17059,0,0
17063,284,0
17067,4049,1
17071,3637,1
17075,0,0
17079,0,0
17083,3642,1
17087,3894,1
17091,0,0
17095,0,0
17099,2715,1
17103,3946,1
17107,794,0
17111,0,0
17115,1985,0
17119,4000,1
17123,1612,0
17127,0,0
17131,1308,0
17135,4033,1
17139,2394,1
17143,0,0
17147,782,0
17151,4051,1
17155,3015,1
17159,0,0
17163,294,0
17167,4095,1
17171,3640,1
17175,0,0
17179,12,0
17183,3629,1
17187,3868,1
17191,0,0
17195,0,0
17199,2707,1
17203,3959,1
17207,769,0
17211,0,0
17215,2033,0
17219,3997,1
17223,1575,0
17227,0,0
17231,1327,0
17235,4033,1
17239,2300,1
17243,0,0
17247,786,0
17251,4037,1
17255,2984,1
17259,0,0
17263,303,0
17267,4059,1
17271,3598,1
17275,0,0
17279,0,0
17283,3695,1
17287,3889,1
17291,0,0
17295,0,0
17299,2750,1
17303,3954,1
17307,714,0
17311,0,0
17315,2031,0
17319,3968,1
17323,1547,0
17327,0,0
17331,1377,0
17335,4056,1
17339,2331,1
17343,0,0
17347,795,0
17351,4052,1
17355,2960,1
17359,24,0
17363,316,0
17367,4061,1
17371,3568,1
17375,0,0
17379,0,0
17383,3728,1
17387,3870,1
17391,0,0
17395,0,0
17399,2781,1
17403,3956,1
17407,675,0
17411,0,0
17415,2080,1
17419,4001,1
17423,1517,0
17427,0,0
17431,1401,0
17435,3910,1
17439,2246,1
17443,0,0
17447,828,0
17451,4075,1
17455,2922,1
17459,0,0
17463,331,0
17467,4051,1
17471,3549,1
17475,0,0
17479,0,0
17483,3815,1
17487,3844,1
17491,0,0
17495,0,0
17499,2820,1
17503,3955,1
17507,587,0
17511,0,0
17515,2133,1
17519,4015,1
17523,1496,0
17527,0,0
17531,1439,0
17535,4031,1
17539,2254,1
17543,0,0
17547,855,0
17551,4066,1
17555,2906,1
17559,0,0
17563,352,0
17567,4052,1
17571,3528,1
17575,0,0
17579,0,0
17583,3860,1
17587,3828,1
17591,0,0
17595,0,0
17599,2850,1
17603,3969,1
17607,593,0
17611,0,0
17615,2137,1
17619,4005,1
17623,1453,0
17627,0,0
17631,1458,0
17635,4042,1
17639,2220,1
17643,0,0
17647,894,0
17651,4053,1
17655,2881,1
17659,60,0
17663,368,0
17667,4070,1
17671,3501,1
17675,0,0
17679,9,0
17683,3897,1
17687,3826,1
17691,0,0
17695,0,0
17699,2895,1
17703,3952,1
17707,566,0
17711,0,0
17715,2179,1
17719,4019,1
17723,1429,0
17727,0,0
17731,1512,0
17735,4037,1
17739,2188,1
17743,0,0
17747,911,0
17751,4067,1
17755,2848,1
17759,0,0
17763,377,0
17767,4065,1
17771,3481,1
17775,0,0
17779,19,0
17783,3913,1
17787,3814,1
17791,0,0
17795,0,0
17799,2924,1
17803,3950,1
17807,566,0
17811,0,0
17815,2200,1
17819,4027,1
17823,1376,0
17827,0,0
17831,1534,0
17835,3943,1
17839,2135,1
17843,0,0
17847,929,0
17851,3626,1
17855,2822,1
17859,0,0
17863,392,0
17867,4090,1
17871,3479,1
17875,0,0
17879,51,0
17883,3943,1
17887,3857,1
17891,0,0
17895,0,0
17899,2958,1
17903,3971,1
17907,525,0
17911,0,0
17915,2243,1
17919,3993,1
17923,1374,0
17927,0,0
17931,1549,0
17935,4035,1
17939,2137,1
17943,0,0
17947,946,0
17951,4051,1
17955,2809,1
17959,0,0
17963,424,0
17967,4083,1
17971,3428,1
17975,0,0
17979,60,0
17983,3924,1
17987,3786,1
17991,0,0
17995,0,0
17999,2992,1
18003,3943,1
18007,456,0
18011,0,0
18015,2238,1
18019,3992,1
18023,1331,0
18027,0,0
18031,1582,0
18035,4034,1
18039,2087,1
18043,0,0
18047,950,0
18051,3858,1
18055,2759,1
18059,0,0
18063,451,0
18067,4073,1
18071,3403,1
18075,0,0
18079,80,0
18083,3969,1
18087,3798,1
18091,0,0
18095,0,0
18099,3032,1
18103,3939,1
18107,447,0
18111,0,0
18115,2283,1
18119,3997,1
18123,1299,0
18127,0,0
18131,1606,0
18135,4036,1
18139,2073,1
18143,103,0
18147,1009,0
18151,4014,1
18155,2750,1
18159,0,0
18163,452,0
18167,3967,1
18171,3384,1
18175,0,0
18179,98,0
18183,4007,1
18187,3792,1
18191,0,0
18195,0,0
18199,3093,1
18203,3968,1
18207,427,0
18211,0,0
18215,2308,1
18219,4006,1
18223,1288,0
18227,0,0
18231,1635,0
18235,3989,1
18239,2101,1
18243,0,0
18247,1047,0
18251,4047,1
18255,2732,1
18259,0,0
18263,481,0
18267,4075,1
18271,3367,1
18275,0,0
18279,107,0
18283,4011,1
18287,3787,1
18291,0,0
18295,0,0
18299,3073,1
18303,3950,1
18307,374,0
18311,0,0
18315,2344,1
18319,3988,1
18323,1266,0
18327,0,0
18331,1660,0
18335,4019,1
18339,1996,1
18343,0,0
18347,1025,0
18351,4064,1
18355,2712,1
18359,0,0
18363,512,0
18367,4052,1
18371,3344,1
18375,0,0
18379,111,0
18383,4009,1
18387,3755,1
18391,0,0
18395,0,0
18399,3124,1
18403,3959,1
18407,344,0
18411,0,0
18415,2364,1
18419,4020,1
18423,1229,0
18427,0,0
18431,1694,0
18435,3984,1
18439,1979,1
18443,0,0
18447,1045,0
18451,4077,1
18455,2693,1
18459,1,0
18463,537,0
18467,4056,1
18471,3319,1
18475,0,0
18479,131,0
18483,4006,1
18487,3773,1
18491,0,0
18495,0,0
18499,3159,1
18503,3953,1
18507,301,0
18511,0,0
18515,2408,1
18519,3970,1
18523,1172,0
18527,0,0
18531,1721,0
18535,4023,1
18539,1955,0
18543,0,0
18547,1077,0
18551,4053,1
18555,2674,1
18559,104,0
18563,554,0
18567,4056,1
18571,3278,1
18575,0,0
18579,148,0
18583,3991,1
18587,3744,1
18591,0,0
18595,0,0
18599,3186,1
18603,3955,1
18607,245,0
18611,0,0
18615,2444,1
18619,3954,1
18623,1151,0
18627,0,0
18631,1744,0
18635,4033,1
18639,1915,0
18643,64,0
18647,1073,0
18651,4043,1
18655,2683,1
18659,0,0
18663,567,0
18667,3940,1
18671,3273,1
18675,0,0
18679,162,0
18683,4039,1
18687,3730,1
18691,0,0
18695,0,0
18699,3215,1
18703,3940,1
18707,199,0
18711,0,0
18715,2437,1
18719,4014,1
18723,1125,0
18727,0,0
18731,1753,0
18735,4025,1
18739,1885,0
18743,32,0
18747,1103,0
18751,4056,1
18755,2620,1
18759,0,0
18763,582,0
18767,4066,1
18771,3262,1
18775,0,0
18779,176,0
18783,4010,1
18787,3743,1
18791,0,0
18795,0,0
18799,3263,1
18803,3930,1
18807,188,0
18811,0,0
18815,2470,1
18819,3961,1
18823,1090,0
18827,0,0
18831,1788,0
18835,4031,1
18839,1891,0
18843,3,0
18847,1114,0
18851,4079,1
18855,2620,1
18859,0,0
18863,597,0
18867,3892,1
18871,3234,1
18875,0,0
18879,205,0
18883,4042,1
18887,3768,1
18891,0,0
18895,0,0
18899,3322,1
18903,3917,1
18907,145,0
18911,0,0
18915,2485,1
18919,3976,1
18923,1048,0
18927,0,0
18931,1806,0
18935,4036,1
18939,1843,0
18943,0,0
18947,1152,0
18951,4010,1
18955,2600,1
18959,0,0
18963,614,0
18967,3919,1
18971,3218,1
18975,0,0
18979,208,0
18983,4038,1
18987,3740,1
18991,0,0
18995,0,0
18999,3366,1
19003,3897,1
19007,100,0
19011,0,0
19015,2507,1
19019,3963,1
19023,1014,0
19027,0,0
19031,1821,0
19035,4041,1
19039,1841,0
19043,7,0
19047,1174,0
19051,4084,1
19055,2567,1
19059,4,0
19063,643,0
19067,4073,1
19071,3208,1
19075,0,0
19079,226,0
19083,4047,1
19087,3716,1
19091,0,0
19095,0,0
19099,3417,1
19103,3901,1
19107,109,0
19111,0,0
19115,2558,1
19119,3979,1
19123,1003,0
19127,0,0
19131,1843,0
19135,4030,1
19139,1796,0
19143,0,0
19147,1172,0
19151,4061,1
19155,2595,1
19159,0,0
19163,654,0
19167,4071,1
19171,3160,1
19175,0,0
19179,232,0
19183,4019,1
19187,3715,1
19191,0,0
19195,0,0
19199,3414,1
19203,3893,1
19207,35,0
19211,0,0
19215,2564,1
19219,3969,1
19223,964,0
19227,0,0
19231,1861,0
19235,4003,1
19239,1777,0
19243,0,0
19247,1202,0
19251,4075,1
19255,2531,1
19259,0,0
19263,659,0
19267,4061,1
19271,3141,1
19275,0,0
19279,250,0
19283,4058,1
19287,3699,1
19291,0,0
19295,0,0
19299,3432,1
19303,3913,1
19307,35,0
19311,0,0
19315,2598,1
19319,3986,1
19323,961,0
19327,0,0
19331,1883,0
19335,3983,1
19339,1762,0
19343,0,0
19347,1226,0
19351,4086,1
19355,2510,1
19359,176,0
19363,660,0
19367,4072,1
19371,3138,1
19375,0,0
19379,265,0
19383,4026,1
19387,3657,1
19391,0,0
19395,0,0
19399,3532,1
19403,3885,1
19407,14,0
19411,0,0
19415,2607,1
19419,3993,1
19423,916,0
19427,0,0
19431,1898,0
19435,3999,1
19439,1760,0
19443,0,0
19447,1240,0
19451,3755,1
19455,2483,1
19459,0,0
19463,693,0
19467,4076,1
19471,3110,1
19475,0,0
19479,267,0
19483,4035,1
19487,3684,1
19491,0,0
19495,0,0
19499,3520,1
19503,3896,1
19507,4,0
19511,0,0
19515,2626,1
19519,3975,1
19523,925,0
19527,0,0
19531,1929,0
19535,4048,1
19539,1724,0
19543,0,0
19547,1242,0
19551,4056,1
19555,2477,1
19559,0,0
19563,714,0
19567,4072,1
19571,3098,1
19575,0,0
19579,285,0
19583,4041,1
19587,3663,1
19591,0,0
19595,0,0
19599,3529,1
19603,3910,1
19607,0,0
19611,0,0
19615,2641,1
19619,3965,1
19623,869,0
19627,0,0
19631,1942,0
19635,3987,1
19639,1704,0
19643,0,0
19647,1308,0
19651,4061,1
19655,2459,1
19659,0,0
19663,723,0
19667,4066,1
19671,3079,1
19675,0,0
19679,300,0
19683,4057,1
19687,3654,1
19691,0,0
19695,0,0
19699,3588,1
19703,3883,1
19707,0,0
19711,0,0
19715,2670,1
19719,3992,1
19723,827,0
19727,0,0
19731,1948,0
19735,3992,1
19739,1673,0
19743,0,0
19747,1303,0
19751,4055,1
19755,2419,1
19759,0,0
19763,737,0
19767,4061,1
19771,3057,1
19775,0,0
19779,307,0
19783,4040,1
19787,3639,1
19791,0,0
19795,0,0
19799,3584,1
19803,3880,1
19807,0,0
19811,0,0
19815,2674,1
19819,3990,1
19823,813,0
19827,0,0
19831,1980,0
19835,4002,1
19839,1642,0
19843,0,0
19847,1323,0
19851,4050,1
19855,2413,1
19859,0,0
19863,741,0
19867,4083,1
19871,3028,1
19875,0,0
19879,291,0
19883,4056,1
19887,3648,1
19891,0,0
19895,0,0
19899,3620,1
19903,3909,1
19907,0,0
19911,0,0
19915,2692,1
19919,3966,1
19923,782,0
19927,0,0
19931,1995,0
19935,3999,1
19939,1622,0
19943,0,0
19947,1334,0
19951,3903,1
19955,2380,1
19959,0,0
19963,745,0
19967,4078,1
19971,3004,1
19975,0,0
19979,302,0
19983,4051,1
19987,3620,1
19991,0,0
19995,0,0
19999,3668,1
20003,3873,1
20007,0,0
20011,0,0
20015,2718,1
20019,3944,1
20023,746,0
20027,0,0
20031,1993,0
20035,3992,1
20039,1619,0
20043,0,0
20047,1342,0
20051,3728,1
20055,2345,1
20059,0,0
20063,748,0
20067,3733,1
20071,2997,1
20075,0,0
20079,313,0
20083,4050,1
20087,3615,1
20091,0,0
20095,0,0
20099,3729,1
20103,3883,1
20107,0,0
20111,0,0
20115,2737,1
20119,3971,1
20123,735,0
20127,0,0
20131,2029,0
20135,4024,1
20139,1571,0
20143,0,0
20147,1364,0
20151,4049,1
20155,2345,1
20159,0,0
20163,776,0
20167,3765,1
20171,2996,1
20175,0,0
20179,321,0
20183,4067,1
20187,3609,1
20191,0,0
20195,0,0
20199,3715,1
20203,3879,1
20207,0,0
20211,0,0
20215,2758,1
20219,3931,1
20223,717,0
20477,0,0
20479,349,0
20483,4058,1
20487,3557,1
20491,0,0
20495,0,0
20499,3793,1
20503,3851,1
20507,0,0
20511,0,0
20515,2799,1
20519,3968,1
20523,658,0
20527,0,0
20531,2085,1
20535,3992,1
20539,1502,0
20543,0,0
20547,1397,0
20551,4011,1
20555,2276,1
20559,0,0
20563,842,0
20567,4023,1
20571,2917,1
20575,0,0
20579,338,0
20583,4061,1
20587,3541,1
20591,0,0
20595,0,0
20599,3743,1
20603,3852,1
20607,0,0
20611,0,0
20615,2810,1
20619,3986,1
20623,627,0
20627,0,0
20631,2101,1
20635,4004,1
20639,1492,0
20643,0,0
20647,1425,0
20651,4045,1
20655,2285,1
20659,0,0
20663,841,0
20667,4066,1
20671,2926,1
20675,0,0
20679,339,0
20683,4054,1
20687,3539,1
20691,0,0
20695,0,0
20699,3813,1
20703,3842,1
20707,0,0
20711,0,0
20715,2824,1
20719,3970,1
20723,586,0
20727,0,0
20731,2116,1
20735,3988,1
20739,1483,0
20743,0,0
20747,1414,0
20751,4029,1
20755,2253,1
20759,186,0
20763,856,0
20767,4058,1
20771,2903,1
20775,0,0
20779,358,0
20783,4050,1
20787,3509,1
20791,0,0
20795,0,0
20799,3842,1
20803,3844,1
20807,0,0
20811,0,0
20815,2841,1
20819,3958,1
20823,590,0
20827,0,0
20831,2106,1
20835,4019,1
20839,1472,0
20843,0,0
20847,1485,0
20851,4016,1
20855,2239,1
20859,0,0
20863,884,0
20867,4066,1
20871,2883,1
20875,9,0
20879,350,0
20883,4064,1
20887,3530,1
20891,0,0
20895,1,0
20899,3868,1
20903,3843,1
20907,0,0
20911,0,0
20915,2849,1
20919,3958,1
20923,597,0
20927,0,0
20931,2128,1
20935,4018,1
20939,1452,0
20943,0,0
20947,1457,0
20951,4027,1
20955,2217,1
20959,0,0
20963,867,0
20967,3619,1
20971,2872,1
20975,0,0
20979,364,0
20983,4055,1
20987,3516,1
20991,0,0
20995,0,0
20999,3872,1
21003,3844,1
21007,0,0
21011,0,0
21015,2893,1
21019,3986,1
21023,592,0
21027,0,0
21031,2184,1
21035,4001,1
21039,1429,0
21043,0,0
21047,1474,0
21051,4022,1
21055,2209,1
21059,64,0
21063,889,0
21067,4040,1
21071,2879,1
21075,0,0
21079,375,0
21083,4044,1
21087,3527,1
21091,0,0
21095,8,0
21099,3889,1
21103,3846,1
21107,0,0
21111,0,0
21115,2900,1
21119,3965,1
21123,557,0
21127,0,0
21131,2166,1
21135,4015,1
21139,1427,0
21143,0,0
21147,1492,0
21151,4037,1
21155,2201,1
21159,0,0
21163,890,0
21167,3964,1
21171,2869,1
21175,0,0
21179,364,0
21183,4064,1
21187,3515,1
21191,0,0
21195,2,0
21199,3880,1
21203,3836,1
21207,0,0
21211,0,0
21215,2904,1
21219,3959,1
21223,560,0
21227,0,0
21231,2164,1
21235,4009,1
21239,1407,0
21243,0,0
21247,1506,0
21251,4013,1
21255,2195,1
21259,0,0
21263,914,0
21267,4034,1
21271,2859,1
21275,0,0
21279,383,0
21283,4048,1
21287,3504,1
21291,0,0
21295,5,0
21299,3891,1
21303,3823,1
21307,0,0
21311,0,0
21315,2920,1
21319,3939,1
21323,539,0
21327,0,0
21331,2183,1
21335,3980,1
21339,1400,0
21343,0,0
21347,1507,0
21351,4043,1
21355,2218,1
21359,168,0
21363,921,0
21367,4052,1
21371,2901,1
21375,0,0
21379,394,0
21383,4039,1
21387,3491,1
21391,0,0
21395,8,0
21399,3898,1
21403,3849,1
21407,0,0
21411,0,0
21415,2936,1
21419,3967,1
21423,533,0
21427,0,0
21431,2183,1
21435,3999,1
21439,1391,0
21443,0,0
21447,1509,0
21451,4047,1
21455,2177,1
21459,191,0
21463,931,0
21467,4067,1
21471,2832,1
21475,0,0
21479,389,0
21483,4047,1
21487,3499,1
21491,0,0
21495,25,0
21499,3885,1
21503,3838,1
21507,0,0
21511,0,0
21515,2939,1
21519,3949,1
21523,508,0
21527,0,0
21531,2210,1
21535,4010,1
21539,1367,0
21543,0,0
21547,1530,0
21551,3922,1
21555,2167,1
21559,0,0
21563,923,0
21567,4060,1
21571,2825,1
21575,0,0
21579,395,0
21583,4071,1
21587,3483,1
21591,0,0
21595,25,0
21599,3966,1
21603,3853,1
21607,0,0
21611,0,0
21615,2975,1
21619,3963,1
21623,512,0
21627,0,0
21631,2234,1
21635,4013,1
21639,1369,0
21643,0,0
21647,1542,0
21651,4012,1
21655,2156,1
21659,0,0
21663,944,0
21667,3595,1
21671,2822,1
21675,0,0
21679,409,0
21683,4079,1
21687,3471,1
21691,0,0
21695,18,0
21699,3968,1
21703,3826,1
21707,0,0
21711,0,0
21715,2964,1
21719,3974,1
21723,491,0
21727,0,0
21731,2250,1
21735,4023,1
21739,1372,0
21743,0,0
21747,1552,0
21751,3962,1
21755,2152,1
21759,0,0
21763,958,0
21767,3629,1
21771,2814,1
21775,0,0
21779,425,0
21783,4076,1
21787,3446,1
21791,0,0
21795,38,0
21799,3957,1
21803,3881,1
21807,0,0
21811,0,0
21815,3001,1
21819,3965,1
21823,468,0
21827,0,0
21831,2242,1
21835,4023,1
21839,1354,0
21843,0,0
21847,1542,0
21851,4051,1
21855,2130,1
21859,96,0
21863,961,0
21867,4043,1
21871,2800,1
21875,0,0
21879,419,0
21883,4079,1
21887,3467,1
21891,0,0
21895,39,0
21899,3978,1
21903,3830,1
21907,0,0
21911,0,0
21915,2990,1
21919,3972,1
21923,473,0
21927,0,0
21931,2241,1
21935,4013,1
21939,1348,0
21943,0,0
21947,1572,0
21951,4060,1
21955,2124,1
21959,0,0
21963,992,0
21967,4052,1
21971,2806,1
21975,0,0
21979,414,0
21983,4083,1
21987,3437,1
21991,0,0
21995,42,0
21999,3973,1
22003,3837,1
22007,0,0
22011,0,0
22015,2996,1
22019,3959,1
22023,446,0
22027,0,0
22031,2254,1
22035,4026,1
22039,1340,0
22043,0,0
22047,1585,0
22051,4051,1
22055,2115,1
22059,0,0
22063,955,0
22067,4075,1
22071,2796,1
22075,49,0
22079,426,0
22083,4080,1
22087,3423,1
22091,0,0
22095,50,0
22099,3981,1
22103,3825,1
22107,0,0
22111,0,0
22115,3027,1
22119,3963,1
22123,466,0
22127,0,0
22131,2274,1
22135,4022,1
22139,1327,0
22143,0,0
22147,1592,0
22151,3965,1
22155,2126,1
22159,0,0
22163,972,0
22167,3807,1
22171,2784,1
22175,0,0
22179,416,0
22183,4091,1
22187,3431,1
22191,0,0
22195,49,0
22199,3985,1
22203,3830,1
22207,0,0
22211,0,0
22215,3035,1
22219,3969,1
22223,434,0
22227,0,0
22231,2276,1
22235,3990,1
22239,1320,0
22243,0,0
22247,1593,0
22251,4064,1
22255,2089,1
22259,0,0
22263,980,0
22267,3683,1
22271,2789,1
22275,0,0
22279,427,0
22283,4077,1
22287,3419,1
22291,0,0
22295,64,0
22299,4095,1
22303,3825,1
22307,0,0
22311,0,0
22315,3046,1
22319,3966,1
22323,426,0
22327,0,0
22331,2277,1
22335,3987,1
22339,1321,0
22343,0,0
22347,1614,0
22351,3942,1
22355,2078,1
22359,0,0
22363,965,0
22367,4079,1
22371,2766,1
22375,0,0
22379,441,0
22383,4053,1
22387,3419,1
22391,0,0
22395,59,0
22399,4000,1
22403,3811,1
22407,0,0
22411,0,0
22415,3074,1
22419,3960,1
22423,420,0
22427,0,0
22431,2279,1
22435,3998,1
22439,1309,0
22443,0,0
22447,1609,0
22451,3980,1
22455,2098,1
22459,0,0
22463,973,0
22467,3895,1
22471,2782,1
22475,0,0
22479,447,0
22483,4063,1
22487,3414,1
22491,0,0
22495,77,0
22499,4050,1
22503,3840,1
22507,0,0
22511,0,0
22515,3069,1
22519,3953,1
22523,420,0
22527,0,0
22531,2294,1
22535,3982,1
22539,1293,0
22543,0,0
22547,1607,0
22551,4052,1
22555,2067,1
22559,193,0
22563,995,0
22567,4060,1
22571,2774,1
22575,0,0
22579,447,0
22583,4078,1
22587,3393,1
22591,0,0
22595,68,0
22599,4027,1
22603,3819,1
22607,0,0
22611,0,0
22615,3055,1
22619,3951,1
22623,416,0
22627,0,0
22631,2285,1
22635,3975,1
22639,1305,0
22643,0,0
22647,1632,0
22651,4054,1
22655,2059,1
22659,0,0
22663,976,0
22667,4088,1
22671,2765,1
22675,37,0
22679,460,0
22683,4072,1
22687,3385,1
22691,0,0
22695,77,0
22699,4026,1
22703,3798,1
22707,0,0
22711,0,0
22715,3080,1
22719,3962,1
22723,391,0
22727,0,0
22731,2348,1
22735,4007,1
22739,1294,0
22743,0,0
22747,1616,0
22751,3941,1
22755,2021,0
22759,0,0
22763,981,0
22767,3820,1
22771,2756,1
22775,0,0
22779,457,0
22783,4072,1
22787,3398,1
22791,0,0
22795,69,0
22799,4014,1
22803,3805,1
22807,0,0
22811,0,0
22815,3073,1
22819,3967,1
22823,383,0
22827,0,0
22831,2317,1
22835,4008,1
22839,1289,0
22843,0,0
22847,1627,0
22851,3956,1
22855,2041,1
22859,0,0
22863,986,0
22867,4075,1
22871,2733,1
22875,0,0
22879,456,0
22883,4079,1
22887,3377,1
22891,0,0
22895,79,0
22899,3981,1
22903,3795,1
22907,0,0
22911,0,0
22915,3083,1
22919,3945,1
22923,369,0
22927,0,0
22931,2314,1
22935,3974,1
22939,1255,0
22943,0,0
22947,1640,0
22951,3981,1
22955,2036,1
22959,0,0
22963,991,0
22967,4095,1
22971,2752,1
22975,48,0
22979,464,0
22983,4065,1
22987,3369,1
22991,0,0
22995,70,0
22999,3983,1
23003,3780,1
23007,0,0
23011,0,0
23015,3084,1
23019,3955,1
23023,366,0
23027,0,0
23031,2323,1
23035,4017,1
23039,1249,0
23043,0,0
23047,1647,0
23051,3959,1
23055,2033,1
23059,0,0
23063,1005,0
23067,3782,1
23071,2716,1
23075,0,0
23079,470,0
23083,4062,1
23087,3410,1
23091,0,0
23095,101,0
23099,4013,1
23103,3788,1
23107,0,0
23111,0,0
23115,3123,1
23119,3940,1
23123,351,0
23127,0,0
23131,2318,1
23135,3999,1
23139,1236,0
23143,0,0
23147,1686,0
23151,4035,1
23155,2010,1
23159,0,0
23163,999,0
23167,3897,1
23171,2688,1
23175,0,0
23179,474,0
23183,4070,1
23187,3344,1
23191,0,0
23195,100,0
23199,3986,1
23203,3800,1
23207,0,0
23211,0,0
23215,3125,1
23219,3940,1
23223,325,0
23227,0,0
23231,2340,1
23235,3969,1
23239,1230,0
23243,0,0
23247,1643,0
23251,4032,1
23255,1998,1
23259,20,0
23263,1020,0
23267,4056,1
23271,2724,1
23275,0,0
23279,483,0
23283,4065,1
23287,3349,1
23291,0,0
23295,104,0
23299,3967,1
23303,3796,1
23307,0,0
23311,0,0
23315,3147,1
23319,3950,1
23323,297,0
23327,0,0
23331,2340,1
23335,4025,1
23339,1213,0
23343,0,0
23347,1672,0
23351,4003,1
23355,1999,1
23359,0,0
23363,1044,0
23367,4056,1
23371,2718,1
23375,92,0
23379,495,0
23383,4082,1
23387,3326,1
23391,0,0
23395,106,0
23399,4008,1
23403,3778,1
23407,0,0
23411,0,0
23415,3134,1
23419,3931,1
23423,303,0
23427,0,0
23431,2350,1
23435,3990,1
23439,1214,0
23443,0,0
23447,1682,0
23451,4018,1
23455,1999,1
23459,0,0
23463,1021,0
23467,4060,1
23471,2710,1
23475,0,0
23479,498,0
23483,3965,1
23487,3312,1
23491,0,0
23495,117,0
23499,4018,1
23503,3780,1
23507,0,0
23511,0,0
23515,3144,1
23519,3932,1
23523,305,0
23527,0,0
23531,2355,1
23535,3977,1
23539,1203,0
23543,0,0
23547,1682,0
23551,4023,1
23555,1993,1
23559,72,0
23563,1042,0
23567,4057,1
23571,2694,1
23575,0,0
23579,488,0
23583,4044,1
23587,3302,1
23591,0,0
23595,114,0
23599,4015,1
23603,3770,1
23607,0,0
23611,0,0
23615,3150,1
23619,3966,1
23623,289,0
23627,0,0
23631,2351,1
23635,3975,1
23639,1196,0
23643,0,0
23647,1699,0
23651,3997,1
23655,1979,1
23659,0,0
23663,1035,0
23667,4078,1
23671,2685,1
23675,0,0
23679,500,0
23683,4059,1
23687,3305,1
23691,0,0
23695,118,0
23699,4031,1
23703,3776,1
23707,0,0
23711,0,0
23715,3196,1
23719,3909,1
23723,284,0
23727,0,0
23731,2375,1
23735,3956,1
23739,1185,0
23743,0,0
23747,1693,0
23751,4008,1
23755,1949,1
23759,0,0
23763,1048,0
23767,4068,1
23771,2679,1
23775,273,0
23779,504,0
23783,4077,1
23787,3294,1
23791,0,0
23795,122,0
23799,4024,1
23803,3769,1
23807,0,0
23811,0,0
23815,3177,1
23819,3924,1
23823,271,0
23827,0,0
23831,2390,1
23835,3956,1
23839,1169,0
23843,0,0
23847,1710,0
23851,4034,1
23855,1949,0
23859,0,0
23863,1064,0
23867,4051,1
23871,2665,1
23875,151,0
23879,528,0
23883,4066,1
23887,3274,1
23891,0,0
23895,115,0
23899,4018,1
23903,3762,1
23907,0,0
23911,0,0
23915,3196,1
23919,3908,1
23923,259,0
23927,0,0
23931,2394,1
23935,3960,1
23939,1170,0
23943,0,0
23947,1705,0
23951,4031,1
23955,1994,0
23959,74,0
23963,1042,0
23967,4064,1
23971,2671,1
23975,32,0
23979,529,0
23983,4074,1
23987,3270,1
23991,0,0
23995,133,0
23999,4029,1
24003,3760,1
24007,0,0
24011,0,0
24015,3188,1
24019,3903,1
24023,261,0
24027,0,0
24031,2410,1
24035,3962,1
24039,1132,0
24043,0,0
24047,1722,0
24051,3970,1
24055,1930,0
24059,0,0
24063,1040,0
24067,4058,1
24071,2653,1
24075,0,0
24079,515,0
24083,4082,1
24087,3292,1
24091,0,0
24095,136,0
24099,3987,1
24103,3779,1
24107,0,0
24111,0,0
24115,3160,1
24119,3898,1
24123,264,0
24127,0,0
24131,2356,1
24135,3972,1
24139,1161,0
24143,0,0
24147,1696,0
24151,3987,1
24155,1967,0
24159,0,0
24163,1030,0
24167,4038,1
24171,2678,1
24175,0,0
24179,504,0
24183,4055,1
24187,3270,1
24191,0,0
24195,122,0
24199,3939,1
24203,3762,1
24207,0,0
24211,0,0
24215,2987,1
24219,3905,1
24223,377,0
24227,0,0
24231,2223,1
24235,3983,1
24239,1282,0
24243,0,0
24247,1580,0
24251,4031,1
24255,2042,1
24259,74,0
24263,927,0
24267,4038,1
24271,2710,1
24275,0,0
24279,435,0
24283,4033,1
24287,3319,1
24291,0,0
24295,21,0
24299,2747,1
24303,3768,1
24307,324,0
24311,0,0
24315,2180,1
24319,3889,1
24323,1053,0
24327,0,0
24331,1844,0
24335,3953,1
24339,1712,0
24343,0,0
24347,1038,0
24351,3954,1
24355,2292,1
24359,0,0
24363,754,0
24367,4030,1
24371,2830,1
24375,0,0
24379,366,0
24383,4024,1
24387,3351,1
24391,0,0
24395,83,0
24399,3695,1
24403,3821,1
24407,0,0
24411,0,0
24415,2858,1
24419,3916,1
24423,494,0
24427,0,0
24431,2190,1
24435,3996,1
24439,1340,0
24443,0,0
24447,1525,0
24451,3977,1
24455,2019,1
24459,0,0
24463,928,0
24467,3735,1
24471,2727,1
24475,0,0
24479,444,0
24483,4060,1
24487,3307,1
24491,0,0
24495,114,0
24499,3883,1
24503,3803,1
24507,0,0
24511,0,0
24515,2972,1
24519,3923,1
24523,425,0
24527,0,0
24531,2257,1
24535,3995,1
24539,1280,0
24543,0,0
24547,1614,0
24551,4016,1
24555,2023,1
24559,0,0
24563,950,0
24567,4052,1
24571,2740,1
24575,12,0
24579,478,0
24583,4051,1
24587,3324,1
24591,0,0
24595,122,0
24599,3967,1
24603,3790,1
24607,0,0
24611,0,0
24615,3002,1
24619,3953,1
24623,416,0
24627,0,0
24631,2277,1
24635,3945,1
24639,1260,0
24643,0,0
24647,1639,0
24651,4001,1
24655,1998,1
24659,87,0
24663,984,0
24667,4013,1
24671,2666,1
24675,0,0
24679,495,0
24683,4007,1
24687,3309,1
24691,0,0
24695,126,0
24699,3986,1
24703,3792,1
24707,0,0
24711,0,0
24715,3050,1
24719,3914,1
24723,349,0
24727,0,0
24731,2304,1
24735,3915,1
24739,1236,0
24743,0,0
24747,1645,0
24751,4041,1
24755,1981,1
24759,150,0
24763,1007,0
24767,4057,1
24771,2693,1
24775,135,0
24779,489,0
24783,4054,1
24787,3292,1
24791,0,0
24795,135,0
24799,3956,1
24803,3784,1
24807,0,0
24811,0,0
24815,3049,1
24819,3934,1
24823,316,0
24827,0,0
24831,2303,1
24835,3967,1
24839,1225,0
24843,0,0
24847,1625,0
24851,4052,1
24855,1960,0
24859,58,0
24863,1023,0
24867,4066,1
24871,2689,1
24875,36,0
24879,512,0
24883,4055,1
24887,3283,1
24891,0,0
24895,128,0
24899,3972,1
24903,3804,1
24907,0,0
24911,0,0
24915,3132,1
24919,3948,1
24923,335,0
24927,0,0
24931,2338,1
24935,3969,1
24939,1218,0
24943,0,0
24947,1680,0
24951,3994,1
24955,1965,0
24959,0,0
24963,1031,0
24967,3826,1
24971,2689,1
24975,0,0
24979,514,0
24983,4052,1
24987,3305,1
24991,0,0
24995,146,0
24999,4009,1
25003,3782,1
25007,0,0
25011,0,0
25015,3113,1
25019,3936,1
25023,320,0
25027,0,0
25031,2342,1
25035,3961,1
25039,1201,0
25043,0,0
25047,1671,0
25051,4012,1
25055,1983,1
25059,0,0
25063,1019,0
25067,4050,1
25071,2726,1
25075,0,0
25079,510,0
25083,3966,1
25087,3291,1
25091,0,0
25095,174,0
25099,4032,1
25103,3777,1
25107,0,0
25111,0,0
25115,3116,1
25119,3904,1
25123,298,0
25127,0,0
25131,2352,1
25135,3975,1
25139,1193,0
25143,0,0
25147,1680,0
25151,4032,1
25155,1965,0
25159,0,0
25163,1039,0
25167,3872,1
25171,2674,1
25175,0,0
25179,529,0
25183,4078,1
25187,3286,1
25191,0,0
25195,157,0
25199,4027,1
25203,3780,1
25207,0,0
25211,0,0
25215,3141,1
25219,3959,1
25223,275,0
25227,0,0
25231,2370,1
25235,3953,1
25239,1194,0
25243,0,0
25247,1697,0
25251,4040,1
25255,1946,0
25259,0,0
25263,1024,0
25267,3717,1
25271,2663,1
25275,0,0
25279,543,0
25283,4094,1
25287,3255,1
25291,0,0
25295,158,0
25299,4018,1
25303,3754,1
25307,0,0
25311,0,0
25315,3143,1
25319,3931,1
25323,268,0
25327,0,0
25331,2374,1
25335,4008,1
25339,1190,0
25343,0,0
25347,1716,0
25351,4021,1
25355,1939,0
25359,0,0
25363,1063,0
25367,4095,1
25371,2655,1
25375,0,0
25379,523,0
25383,4081,1
25387,3237,1
25391,0,0
25395,186,0
25399,4042,1
25403,3748,1
25407,0,0
25411,0,0
25415,3187,1
25419,3919,1
25423,244,0
25427,0,0
25431,2398,1
25435,3983,1
25439,1135,0
25443,0,0
25447,1724,0
25451,4067,1
25455,1926,0
25459,0,0
25463,1099,0
25467,4095,1
25471,2657,1
25475,61,0
25479,556,0
25483,4071,1
25487,3239,1
25491,0,0
25495,166,0
25499,4023,1
25503,3735,1
25507,0,0
25511,0,0
25515,3187,1
25519,3916,1
25523,222,0
25527,0,0
25531,2404,1
25535,3961,1
25539,1126,0
25543,0,0
25547,1669,0
25551,4047,1
25555,1903,0
25559,13,0
25563,1082,0
25567,4070,1
25571,2657,1
25575,0,0
25579,564,0
25583,4065,1
25587,3225,1
25591,0,0
25595,174,0
25599,4013,1
25603,3751,1
25607,0,0
25611,0,0
25615,3211,1
25619,3907,1
25623,214,0
25627,0,0
25631,2422,1
25635,3969,1
25639,1118,0
25643,0,0
25647,1753,0
25651,3996,1
25655,1928,1
25659,0,0
25663,1091,0
25667,3740,1
25671,2624,1
25675,0,0
25679,565,0
25683,4055,1
25687,3221,1
25691,0,0
25695,192,0
25699,3995,1
25703,3743,1
25707,0,0
25711,0,0
25715,3210,1
25719,3897,1
25723,226,0
25727,0,0
25731,2428,1
25735,3946,1
25739,1123,0
25743,0,0
25747,1768,0
25751,3981,1
25755,1885,0
25759,0,0
25763,1088,0
25767,3725,1
25771,2631,1
25775,0,0
25779,563,0
25783,4069,1
25787,3228,1
25791,0,0
25795,185,0
25799,3997,1
25803,3752,1
25807,0,0
25811,0,0
25815,3213,1
25819,3905,1
25823,209,0
25827,0,0
25831,2430,1
25835,3962,1
25839,1123,0
25843,0,0
25847,1737,0
25851,4005,1
25855,1884,0
25859,0,0
25863,1080,0
25867,3860,1
25871,2632,1
25875,0,0
25879,567,0
25883,4060,1
25887,3214,1
25891,0,0
25895,183,0
25899,4020,1
25903,3758,1
25907,0,0
25911,0,0
25915,3225,1
25919,3923,1
25923,204,0
25927,0,0
25931,2496,1
25935,3954,1
25939,1109,0
25943,0,0
25947,1736,0
25951,4002,1
25955,1892,0
25959,12,0
25963,1103,0
25967,4052,1
25971,2647,1
25975,0,0
25979,561,0
25983,4033,1
25987,3229,1
25991,0,0
25995,186,0
25999,4003,1
26003,3755,1
26007,0,0
26011,0,0
26015,3220,1
26019,3924,1
26023,197,0
26027,0,0
26031,2437,1
26035,3980,1
26039,1097,0
26043,0,0
26047,1766,0
26051,3978,1
26055,1898,0
26059,0,0
26063,1111,0
26067,4064,1
26071,2631,1
26075,133,0
26079,579,0
26083,4089,1
26087,3229,1
26091,0,0
26095,173,0
26099,3999,1
26103,3730,1
26107,0,0
26111,0,0
26115,3230,1
26119,3921,1
26123,185,0
26127,0,0
26131,2432,1
26135,3935,1
26139,1075,0
26143,0,0
26147,1759,0
26151,4035,1
26155,1890,0
26159,0,0
26163,1079,0
26167,4062,1
26171,2627,1
26175,0,0
26179,572,0
26183,4075,1
26187,3226,1
26191,0,0
26195,179,0
26199,4022,1
26203,3738,1
26207,0,0
26211,0,0
26215,3221,1
26219,3923,1
26223,190,0
26227,0,0
26231,2436,1
26235,3986,1
26239,1108,0
26243,0,0
26247,1760,0
26251,3990,1
26255,1911,1
26259,0,0
26263,1091,0
26267,3898,1
26271,2630,1
26275,0,0
26279,568,0
26283,4085,1
26287,3217,1
26291,0,0
26295,191,0
26299,4027,1
26303,3716,1
26307,0,0
26311,0,0
26315,3229,1
26319,3918,1
26323,246,0
26327,0,0
26331,2434,1
26335,3981,1
26339,1082,0
26343,0,0
26347,1789,0
26351,4019,1
26355,1885,0
26359,0,0
26363,1087,0
26367,4054,1
26371,2590,1
26375,0,0
26379,597,0
26383,4001,1
26387,3218,1
26391,0,0
26395,179,0
26399,4052,1
26403,3709,1
26407,0,0
26411,0,0
26415,3219,1
26419,3922,1
26423,172,0
26427,0,0
26431,2428,1
26435,3976,1
26439,1096,0
26443,0,0
26447,1762,0
26451,4039,1
26455,1878,0
26459,0,0
26463,1069,0
26467,4095,1
26471,2619,1
26475,0,0
26479,584,0
26483,4067,1
26487,3212,1
26491,0,0
26495,187,0
26499,4005,1
26503,3735,1
26507,0,0
26511,0,0
26515,3234,1
26519,3892,1
26523,177,0
26527,0,0
26531,2434,1
26535,3967,1
26539,1084,0
26543,0,0
26547,1769,0
26551,4021,1
26555,1870,0
26559,0,0
26563,1157,0
26567,4083,1
26571,2610,1
26575,125,0
26579,587,0
26583,4062,1
26587,3204,1
26591,0,0
26595,192,0
26599,4020,1
26603,3751,1
26607,0,0
26611,0,0
26615,3237,1
26619,3899,1
26623,186,0
26627,0,0
26631,2460,1
26635,3972,1
26639,1095,0
26643,0,0
26647,1779,0
26651,4008,1
26655,1879,0
26659,0,0
26663,1104,0
26667,4068,1
26671,2610,1
26675,0,0
26679,582,0
26683,4059,1
26687,3204,1
26691,0,0
26695,193,0
26699,3996,1
26703,3747,1
26707,0,0
26711,0,0
26715,3255,1
26719,3870,1
26723,168,0
26727,0,0
26731,2461,1
26735,3970,1
26739,1088,0
26743,0,0
26747,1767,0
26751,3974,1
26755,1865,0
26759,0,0
26763,1103,0
26767,3789,1
26771,2597,1
26775,0,0
26779,579,0
26783,4071,1
26787,3219,1
26791,0,0
26795,196,0
26799,4003,1
26803,3718,1
26807,0,0
26811,0,0
26815,3246,1
26819,3890,1
26823,167,0
26827,0,0
26831,2434,1
26835,3968,1
26839,1081,0
26843,0,0
26847,1770,0
26851,3976,1
26855,1808,0
26859,0,0
26863,1096,0
26867,3715,1
26871,2588,1
26875,0,0
26879,585,0
26883,3723,1
26887,3194,1
26891,0,0
26895,205,0
26899,4004,1
26903,3709,1
26907,0,0
26911,0,0
26915,3261,1
26919,3899,1
26923,156,0
26927,0,0
26931,2445,1
26935,3932,1
26939,1078,0
26943,0,0
26947,1771,0
26951,4004,1
26955,1869,0
26959,0,0
26963,1132,0
26967,4061,1
26971,2594,1
26975,103,0
26979,582,0
26983,4064,1
26987,3198,1
26991,0,0
26995,206,0
26999,4017,1
27003,3702,1
27007,0,0
27011,0,0
27015,3261,1
27019,3900,1
27023,162,0
27027,0,0
27031,2456,1
27035,3971,1
27039,1079,0
27043,0,0
27047,1784,0
27051,3996,1
27055,1846,0
27059,0,0
27063,1130,0
27067,4063,1
27071,2582,1
27075,0,0
27079,613,0
27083,4066,1
27087,3181,1
27091,0,0
27095,204,0
27099,4024,1
27103,3723,1
27107,0,0
27111,0,0
27115,3258,1
27119,3910,1
27123,160,0
27127,0,0
27131,2458,1
27135,3987,1
27139,1059,0
27143,0,0
27147,1784,0
27151,4005,1
27155,1854,0
27159,0,0
27163,1130,0
27167,3848,1
27171,2575,1
27175,0,0
27179,587,0
27183,4064,1
27187,3191,1
27191,0,0
27195,212,0
27199,4034,1
27203,3718,1
27207,0,0
27211,0,0
27215,3262,1
27219,3917,1
27223,161,0
27227,0,0
27231,2455,1
27235,3991,1
27239,1054,0
27243,0,0
27247,1805,0
27251,3976,1
27255,1817,0
27259,0,0
27263,1129,0
27267,4055,1
27271,2578,1
27275,0,0
27279,585,0
27283,4069,1
27287,3197,1
27291,0,0
27295,214,0
27299,4030,1
27303,3716,1
27307,0,0
27311,0,0
27315,3284,1
27319,3905,1
27323,151,0
27327,0,0
27331,2501,1
27335,3972,1
27339,1053,0
27343,0,0
27347,1818,0
27351,4023,1
27355,1851,0
27359,0,0
27363,1127,0
27367,4051,1
27371,2600,1
27375,0,0
27379,596,0
27383,4071,1
27387,3214,1
27391,0,0
27395,213,0
27399,4029,1
27403,3721,1
27407,0,0
27411,0,0
27415,3261,1
27419,3894,1
27423,160,0
27427,0,0
27431,2466,1
27435,3988,1
27439,1043,0
27443,0,0
27447,1780,0
27451,4020,1
27455,1845,0
27459,2,0
27463,1138,0
27467,4062,1
27471,2569,1
27475,0,0
27479,602,0
27483,4083,1
27487,3201,1
27491,0,0
27495,198,0
27499,4024,1
27503,3724,1
27507,0,0
27511,0,0
27515,3267,1
27519,3887,1
27523,142,0
27527,0,0
27531,2479,1
27535,3996,1
27539,1057,0
27543,0,0
27547,1788,0
27551,4001,1
27555,1815,0
27559,0,0
27563,1127,0
27567,3922,1
27571,2587,1
27575,0,0
27579,602,0
27583,4079,1
27587,3202,1
27591,0,0
27595,212,0
27599,4014,1
27603,3744,1
27607,0,0
27611,0,0
27615,3293,1
27619,3900,1
27623,178,0
27627,0,0
27631,2473,1
27635,3967,1
27639,1059,0
27643,0,0
27647,1791,0
27651,4010,1
27655,1857,0
27659,0,0
27663,1123,0
27667,4023,1
27671,2554,1
27675,0,0
27679,591,0
27683,3910,1
27687,3207,1
27691,0,0
27695,221,0
27699,4001,1
27703,3718,1
27707,0,0
27711,0,0
27715,3306,1
27719,3920,1
27723,160,0
27727,0,0
27731,2471,1
27735,3976,1
27739,1049,0
27743,0,0
27747,1787,0
27751,4019,1
27755,1837,0
27759,17,0
27763,1131,0
27767,3992,1
27771,2604,1
27775,0,0
27779,592,0
27783,3954,1
27787,3216,1
27791,0,0
27795,197,0
27799,4025,1
27803,3745,1
27807,0,0
27811,0,0
27815,3289,1
27819,3927,1
27823,133,0
27827,0,0
27831,2469,1
27835,3987,1
27839,1053,0
27843,0,0
27847,1800,0
27851,4025,1
27855,1844,0
27859,0,0
27863,1134,0
27867,4049,1
27871,2580,1
27875,0,0
27879,616,0
27883,3933,1
27887,3194,1
27891,0,0
27895,217,0
27899,4030,1
27903,3734,1
27907,0,0
27911,0,0
27915,3312,1
27919,3928,1
27923,129,0
27927,0,0
27931,2496,1
27935,3980,1
27939,1031,0
27943,0,0
27947,1818,0
27951,4013,1
27955,1837,0
27959,0,0
27963,1162,0
27967,4054,1
27971,2588,1
27975,0,0
27979,611,0
27983,4065,1
27987,3193,1
27991,0,0
27995,225,0
27999,3993,1
28003,3739,1
28007,0,0
28011,0,0
28015,3316,1
28019,3929,1
28023,130,0
28027,0,0
28031,2520,1
28035,3999,1
28039,1035,0
28043,0,0
28047,1833,0
28051,4028,1
28055,1827,0
28059,0,0
28063,1161,0
28067,3820,1
28071,2570,1
28075,0,0
28079,621,0
28083,4075,1
28087,3190,1
28091,0,0
28095,221,0
28099,4052,1
28103,3697,1
28107,0,0
28111,0,0
28115,3344,1
28119,3904,1
28123,121,0
28127,0,0
28131,2546,1
28135,4005,1
28139,1013,0
28143,0,0
28147,1845,0
28151,4042,1
28155,1814,0
28159,0,0
28163,1148,0
28167,4087,1
28171,2556,1
28175,0,0
28179,651,0
28183,4073,1
28187,3143,1
28191,0,0
28195,233,0
28199,4055,1
28203,3704,1
28207,0,0
28211,0,0
28215,3394,1
28219,3920,1
28223,88,0
28227,0,0
28231,2561,1
28235,4016,1
28239,970,0
28243,0,0
28247,1884,0
28251,4020,1
28255,1787,0
28259,0,0
28263,1213,0
28267,4086,1
28271,2538,1
28275,0,0
28279,700,0
28283,4091,1
28287,3169,1
28291,0,0
28295,245,0
28299,4048,1
28303,3722,1
28307,0,0
28311,0,0
28315,3475,1
28319,3909,1
28323,45,0
28327,0,0
28331,2598,1
28335,4015,1
28339,974,0
28343,0,0
28347,1904,0
28351,4010,1
28355,1771,0
28359,0,0
28363,1227,0
28367,4002,1
28371,2567,1
28375,0,0
28379,676,0
28383,4049,1
28387,3164,1
28391,0,0
28395,248,0
28399,4057,1
28403,3710,1
28407,0,0
28411,0,0
28415,3475,1
28419,3913,1
28423,25,0
28427,0,0
28431,2601,1
28435,3983,1
28439,941,0
28443,0,0
28447,1915,0
28451,4015,1
28455,1758,0
28459,0,0
28463,1178,0
28467,4082,1
28471,2526,1
28475,71,0
28479,679,0
28483,4063,1
28487,3146,1
28491,0,0
28495,259,0
28499,4042,1
28503,3687,1
28507,0,0
28511,0,0
28515,3491,1
28519,3886,1
28523,10,0
28527,0,0
28531,2617,1
28535,3969,1
28539,913,0
28543,0,0
28547,1948,0
28551,4021,1
28555,1721,0
28559,0,0
28563,1263,0
28567,4075,1
28571,2513,1
28575,126,0
28579,690,0
28583,4070,1
28587,3130,1
28591,0,0
28595,251,0
28599,4052,1
28603,3669,1
28607,0,0
28611,0,0
28615,3490,1
28619,3878,1
28623,8,0
28627,0,0
28631,2632,1
28635,3963,1
28639,891,0
28643,0,0
28647,1940,0
28651,3986,1
28655,1733,0
28659,0,0
28663,1284,0
28667,4064,1
28671,2494,1
28675,0,0
28679,696,0
28683,4056,1
28687,3129,1
28691,0,0
28695,266,0
28699,4052,1
28703,3664,1
28707,0,0
28711,0,0
28715,3544,1
28719,3893,1
28723,4,0
28727,0,0
28731,2649,1
28735,3967,1
28739,894,0
28743,0,0
28747,1939,0
28751,4001,1
28755,1748,0
28759,0,0
28763,1238,0
28767,4057,1
28771,2521,1
28775,0,0
28779,679,0
28783,4059,1
28787,3151,1
28791,0,0
28795,273,0
28799,4030,1
28803,3705,1
28807,0,0
28811,0,0
28815,3339,1
28819,3886,1
28823,79,0
28827,0,0
28831,2259,1
28835,3965,1
28839,1205,0
28843,0,0
28847,1640,0
28851,3930,1
28855,1914,0
28859,0,0
28863,1048,0
28867,4059,1
28871,2611,1
28875,114,0
28879,577,0
28883,4049,1
28887,3199,1
28891,0,0
28895,219,0
28899,3938,1
28903,3711,1
28907,0,0
28911,0,0
28915,3067,1
28919,3880,1
28923,206,0
28927,0,0
28931,2358,1
28935,3939,1
28939,1085,0
28943,0,0
28947,1737,0
28951,3990,1
28955,1848,0
28959,6,0
28963,1173,0
28967,4023,1
28971,2631,1
28975,0,0
28979,687,0
28983,4074,1
28987,3165,1
28991,0,0
28995,298,0
28999,4007,1
29003,3689,1
29007,0,0
29011,0,0
29015,3295,1
29019,3900,1
29023,58,0
29027,0,0
29031,2567,1
29035,3960,1
29039,959,0
29043,0,0
29047,1917,0
29051,4003,1
29055,1743,0
29059,0,0
29063,1302,0
29067,3989,1
29071,2529,1
29075,0,0
29079,757,0
29083,4090,1
29087,3147,1
29091,0,0
29095,314,0
29099,4019,1
29103,3675,1
29107,0,0
29111,0,0
29115,3289,1
29119,3901,1
29123,113,0
29127,0,0
29131,2662,1
29135,3962,1
29139,823,0
29143,0,0
29147,2041,0
29151,4012,1
29155,1705,0
29159,0,0
29163,1331,0
29167,4065,1
29171,2591,1
29175,0,0
29179,662,0
29183,4062,1
29187,3184,1
29191,0,0
29195,223,0
29199,3886,1
29203,3680,1
29207,0,0
29211,0,0
29215,2916,1
29219,3899,1
29223,287,0
29227,0,0
29231,2237,1
29235,3980,1
29239,1231,0
29243,0,0
29247,1635,0
29251,3983,1
29255,1949,0
29259,0,0
29263,1011,0
29267,3627,1
29271,2669,1
29275,0,0
29279,534,0
29283,4015,1
29287,3241,1
29291,0,0
29295,191,0
29299,3578,1
29303,3753,1
29307,0,0
29311,0,0
29315,2765,1
29319,3910,1
29323,530,0
29327,0,0
29331,2094,1
29335,4040,1
29339,1356,0
29343,0,0
29347,1443,0
29351,3982,1
29355,2052,1
29359,15,0
29363,913,0
29367,4016,1
29371,2724,1
29375,0,0
29379,445,0
29383,3966,1
29387,3272,1
29391,0,0
29395,126,0
29399,3289,1
29403,3735,1
29407,0,0
29411,0,0
29415,2572,1
29419,3896,1
29423,611,0
29427,0,0
29431,1963,0
29435,3956,1
29439,1426,0
29443,0,0
29447,1400,0
29451,4017,1
29455,2104,1
29459,0,0
29463,802,0
29467,4023,1
29471,2743,1
29475,0,0
29479,420,0
29483,3644,1
29487,3297,1
29491,0,0
29495,86,0
29499,2732,1
29503,3728,1
29507,276,0
29511,0,0
29515,2184,1
29519,3866,1
29523,967,0
29527,0,0
29531,1627,0
29535,3915,1
29539,1656,0
29543,0,0
29547,1085,0
29551,3838,1
29555,2244,1
29559,0,0
29563,593,0
29567,3566,1
29571,2816,1
29575,0,0
29579,247,0
29583,2852,1
29587,3254,1
29591,2,0
29595,30,0
29599,2282,1
29603,3405,1
29607,654,0
29611,0,0
29615,1429,0
29619,2643,1
29623,843,0
29627,0,0
29631,817,0
29635,1774,0
29639,478,0
29643,7,0
29647,615,0
29651,1478,0
29655,462,0
29659,98,0
29663,1428,0
29667,1950,1
29671,676,0
29675,446,0
29679,1335,0
29683,1344,0
29687,314,0
29691,186,0
29695,1060,0
29699,1046,0
29703,211,0
29707,44,0
29711,871,0
29715,905,0
29719,205,0
29723,1,0
29727,644,0
29731,721,0
29735,179,0
29739,2,0
29743,574,0
29747,697,0
29751,248,0
29755,0,0
29759,417,0
29763,689,0
29767,305,0
29771,0,0
29775,313,0
29779,688,0
29783,194,0
29787,0,0
29791,295,0
29795,864,0
29799,402,0
29803,0,0
29807,209,0
29811,882,0
29815,532,0
29819,0,0
29823,131,0
29827,739,0
29831,476,0
29835,2,0
29839,41,0
29843,630,0
29847,365,0
29851,8,0
29855,0,0
29859,480,0
29863,400,0
29867,53,0
29871,0,0
29875,391,0
29879,502,0
29883,42,0
29887,0,0
29891,262,0
29895,685,0
29899,140,0
29903,0,0
29907,280,0
29911,977,0
29915,767,0
29919,380,0
29923,322,0
29927,929,0
29931,669,0
29935,383,0
29939,247,0
29943,1510,0
29947,1772,1
29951,1644,0
29955,1325,0
29959,2061,1
29963,1786,1
29967,1174,0
29971,896,0
29975,1954,1
29979,2648,1
29983,2457,1
29987,2072,1
29991,2658,1
29995,3379,1
29999,2889,1
30003,2388,1
30007,2466,1
30011,3059,1
30015,2448,1
30019,1728,1
30023,1402,0
30027,2122,1
30031,1878,1
30035,1263,0
30039,712,0
30043,1523,0
30047,1424,0
30051,884,0
30055,155,0
30059,868,0
30063,1141,0
30067,645,0
30071,0,0
30075,589,0
30079,1122,0
30083,572,0
30087,0,0
30091,417,0
30095,1118,0
30099,583,0
30103,0,0
30107,246,0
30111,1001,0
30115,613,0
30119,24,0
30123,128,0
30127,864,0
30131,613,0
30135,149,0
30139,79,0
30143,828,0
30147,712,0
30151,241,0
30155,11,0
30159,629,0
30163,829,0
30167,371,0
30171,0,0
30175,528,0
30179,958,0
30183,407,0
30187,0,0
30191,422,0
30195,1014,0
30199,441,0
30203,0,0
30207,281,0
30211,968,0
30215,520,0
30219,0,0
30223,162,0
30227,845,0
30231,531,0
30235,90,0
30239,91,0
30243,826,0
30247,624,0
30251,200,0
30255,9,0
30259,668,0
30263,763,0
30267,374,0
30271,0,0
30275,583,0
30279,878,0
30283,287,0
30287,0,0
30291,451,0
30295,946,0
30299,368,0
30303,0,0
30307,308,0
30311,899,0
30315,438,0
30319,0,0
30323,191,0
30327,833,0
30331,514,0
30335,113,0
30339,99,0
30343,829,0
30347,604,0
30351,188,0
30355,31,0
30359,648,0
30363,695,0
30367,186,0
30371,9,0
30375,573,0
30379,829,0
30383,237,0
30387,0,0
30391,465,0
30395,931,0
30399,332,0
30403,0,0
30407,314,0
30411,900,0
30415,410,0
30419,5,0
30423,187,0
30427,821,0
30431,501,0
30435,88,0
30439,78,0
30443,783,0
30447,577,0
30451,70,0
30455,3,0
30459,622,0
30463,687,0
30467,167,0
30471,0,0
30475,459,0
30744,875,0
30747,618,0
30751,107,0
30755,0,0
30759,622,0
30763,722,0
30767,242,0
30771,0,0
30775,477,0
30779,888,0
30783,413,0
30787,0,0
30791,369,0
30795,954,0
30799,433,0
30803,0,0
30807,232,0
30811,870,0
30815,512,0
30819,63,0
30823,137,0
30827,765,0
30831,579,0
30835,161,0
30839,38,0
30843,752,0
30847,658,0
30851,143,0
30855,0,0
30859,603,0
30863,759,0
30867,248,0
30871,0,0
30875,449,0
30879,859,0
30883,332,0
30887,0,0
30891,380,0
30895,889,0
30899,401,0
30903,0,0
30907,236,0
30911,815,0
30915,487,0
30919,0,0
30923,117,0
30927,729,0
30931,517,0
30935,24,0
30939,59,0
30943,743,0
30947,637,0
30951,104,0
30955,0,0
30959,603,0
30963,777,0
30967,255,0
30971,0,0
30975,476,0
30979,844,0
30983,318,0
30987,0,0
30991,382,0
30995,898,0
30999,406,0
31003,0,0
31007,251,0
31011,825,0
31015,462,0
31019,9,0
31023,145,0
31027,740,0
31031,502,0
31035,31,0
31039,59,0
31043,726,0
31047,547,0
31051,76,0
31055,0,0
31059,598,0
31063,662,0
31067,193,0
31071,0,0
31075,485,0
31079,802,0
31083,287,0
31087,0,0
31091,384,0
31095,858,0
31099,362,0
31103,0,0
31107,263,0
31111,777,0
31115,409,0
31119,65,0
31123,161,0
31127,690,0
31131,480,0
31135,68,0
31139,55,0
31143,708,0
31147,560,0
31151,100,0
31155,0,0
31159,547,0
31163,621,0
31167,149,0
31171,0,0
31175,545,0
31179,727,0
31183,206,0
31187,0,0
31191,458,0
31195,833,0
31199,276,0
31203,0,0
31207,271,0
31211,822,0
31215,347,0
31219,0,0
31223,211,0
31227,758,0
31231,429,0
31235,132,0
31239,87,0
31243,761,0
31247,498,0
31251,131,0
31255,4,0
31259,633,0
31263,637,0
31267,186,0
31271,0,0
31275,502,0
31279,801,0
31283,265,0
31287,0,0
31291,427,0
31295,865,0
31299,321,0
31303,0,0
31307,264,0
31311,844,0
31315,405,0
31319,67,0
31323,215,0
31327,778,0
31331,468,0
31335,122,0
31339,70,0
31343,762,0
31347,543,0
31351,95,0
31355,0,0
31359,622,0
31363,650,0
31367,170,0
31371,0,0
31375,510,0
31379,777,0
31383,251,0
31387,0,0
31391,404,0
31395,878,0
31399,376,0
31403,4,0
31407,240,0
31411,812,0
31415,480,0
31419,66,0
31423,108,0
31427,751,0
31431,577,0
31435,97,0
31439,61,0
31443,736,0
31447,670,0
31451,345,0
31455,12,0
31459,510,0
31463,754,0
31467,639,0
31471,0,0
31475,440,0
31479,837,0
31483,324,0
31487,0,0
31491,320,0
31495,861,0
31499,401,0
31503,0,0
31507,212,0
31511,830,0
31515,511,0
31519,2,0
31523,111,0
31527,745,0
31531,591,0
31535,98,0
31539,54,0
31543,668,0
31547,612,0
31551,317,0
31555,0,0
31559,480,0
31563,708,0
31567,322,0
31571,42,0
31575,396,0
31579,818,0
31583,340,0
31587,0,0
31591,320,0
31595,861,0
31599,429,0
31603,0,0
31607,220,0
31611,747,0
31615,462,0
31619,124,0
31623,126,0
31627,677,0
31631,536,0
31635,193,0
31639,43,0
31643,646,0
31647,604,0
31651,159,0
31655,0,0
31659,526,0
31663,727,0
31667,274,0
31671,0,0
31675,400,0
31679,842,0
31683,352,0
31687,0,0
31691,340,0
31695,839,0
31699,442,0
31703,0,0
31707,204,0
31711,788,0
31715,428,0
31719,0,0
31723,124,0
31727,705,0
31731,474,0
31735,40,0
31739,40,0
31743,698,0
31747,564,0
31751,116,0
31755,0,0
31759,529,0
31763,709,0
31767,233,0
31771,0,0
31775,511,0
31779,831,0
31783,353,0
31787,0,0
31791,320,0
31795,831,0
31799,426,0
31803,0,0
31807,167,0
31811,751,0
31815,494,0
31819,19,0
31823,80,0
31827,686,0
31831,563,0
31835,90,0
31839,89,0
31843,672,0
31847,640,0
31851,255,0
31855,0,0
31859,488,0
31863,734,0
31867,233,0
31871,0,0
31875,426,0
31879,809,0
31883,294,0
31887,0,0
31891,358,0
31895,864,0
31899,377,0
31903,0,0
31907,211,0
31911,815,0
31915,469,0
31919,0,0
31923,122,0
31927,739,0
31931,522,0
31935,36,0
31939,33,0
31943,726,0
31947,639,0
31951,128,0
31955,0,0
31959,560,0
31963,788,0
31967,251,0
31971,0,0
31975,474,0
31979,903,0
31983,340,0
31987,0,0
31991,352,0
31995,954,0
31999,441,0
32003,0,0
32007,230,0
32011,921,0
32015,535,0
32019,17,0
32023,139,0
32027,846,0
32031,595,0
32035,66,0
32039,59,0
32043,825,0
32047,664,0
32051,87,0
32055,0,0
32059,630,0
32063,788,0
32067,201,0
32071,0,0
32075,467,0
32079,915,0
32083,286,0
32087,0,0
32091,465,0
32095,985,0
32099,389,0
32103,0,0
32107,306,0
32111,950,0
32115,466,0
32119,0,0
32123,168,0
32127,890,0
32131,484,0
32135,68,0
32139,98,0
32143,893,0
32147,624,0
32151,184,0
32155,0,0
32159,726,0
32163,736,0
32167,332,0
32171,0,0
32175,635,0
32179,864,0
32183,199,0
32187,0,0
32191,485,0
32195,941,0
32199,299,0
32203,0,0
32207,353,0
32211,954,0
32215,400,0
32219,0,0
32223,222,0
32227,894,0
32231,437,0
32235,0,0
32239,99,0
32243,903,0
32247,531,0
32251,138,0
32255,4,0
32259,749,0
32263,701,0
32267,219,0
32271,48,0
32275,675,0
32279,842,0
32283,265,0
32287,0,0
32291,550,0
32295,956,0
32299,341,0
32303,0,0
32307,395,0
32311,1030,0
32315,486,0
32319,0,0
32323,261,0
32327,1005,0
32331,583,0
32335,81,0
32339,135,0
32343,1013,0
32347,674,0
32351,209,0
32355,5,0
32359,826,0
32363,834,0
32367,328,0
32371,0,0
32375,756,0
32379,961,0
32383,430,0
32387,0,0
32391,583,0
32395,1064,0
32399,538,0
32403,0,0
32407,385,0
32411,1065,0
32415,619,0
32419,63,0
32423,230,0
32427,977,0
32431,658,0
32435,152,0
32439,94,0
32443,926,0
32447,694,0
32451,222,0
32455,0,0
32459,673,0
32463,813,0
32467,352,0
32471,0,0
32475,621,0
32479,892,0
32483,436,0
32487,0,0
32491,451,0
32495,982,0
32499,585,0
32503,0,0
32507,253,0
32511,927,0
32515,645,0
32519,18,0
32523,138,0
32527,807,0
32531,653,0
32535,159,0
32539,47,0
32543,775,0
32547,726,0
32551,378,0
32555,0,0
32559,527,0
32563,817,0
32567,599,0
32571,0,0
32575,400,0
32579,871,0
32583,622,0
32587,0,0
32591,245,0
32595,919,0
32599,761,0
32603,41,0
32607,97,0
32611,816,0
32615,878,0
32619,278,0
32623,7,0
32627,669,0
32631,893,0
32635,523,0
32639,1,0
32643,575,0
32647,949,0
32651,927,0
32655,0,0
32659,0,0
32663,388,0
32667,1336,0
32671,643,0
32675,0,0
32679,0,0
32683,1617,0
32687,2027,1
32691,0,0
32695,0,0
32699,1828,0
32703,3030,1
32707,473,0
32711,0,0
32715,1625,0
32719,3586,1
32723,1228,0
32727,0,0
32731,1163,0
32735,3480,1
32739,1783,0
32743,0,0
32747,686,0
32751,3178,1
32755,2228,1
32759,58,0
32763,358,0
32767,2804,1
32771,2616,1
32775,78,0
32779,67,0
32783,2485,1
32787,3116,1
32791,86,0
32795,0,0
32799,2174,1
32803,3570,1
32807,665,0
32811,0,0
32815,1747,0
32819,3850,1
32823,1309,0
32827,0,0
32831,1288,0
32835,3905,1
32839,1933,1
32843,0,0
32847,821,0
32851,3812,1
32855,2462,1
32859,0,0
32863,460,0
32867,3379,1
32871,2978,1
32875,80,0
32879,120,0
32883,2877,1
32887,3474,1
32891,39,0
32895,0,0
32899,2405,1
32903,3824,1
32907,634,0
32911,0,0
32915,1897,0
32919,3941,1
32923,1315,0
32927,0,0
32931,1386,0
32935,3963,1
32939,1936,1
32943,0,0
32947,902,0
32951,3927,1
32955,2429,1
32959,0,0
32963,606,0
32967,3819,1
32971,2931,1
32975,0,0
32979,302,0
32983,3969,1
32987,3436,1
32991,0,0
32995,32,0
32999,3676,1
33003,3807,1
33007,0,0
33011,0,0
33015,2815,1
33019,3968,1
33023,547,0
33027,0,0
33031,2160,1
33035,3968,1
33039,1400,0
33043,0,0
33047,1519,0
33051,4060,1
33055,2163,1
33059,0,0
33063,944,0
33067,4086,1
33071,2837,1
33075,0,0
33079,423,0
33083,4070,1
33087,3440,1
33091,0,0
33095,45,0
33099,3889,1
33103,3822,1
33107,0,0
33111,0,0
33115,2932,1
33119,3977,1
33123,484,0
33127,0,0
33131,2219,1
33135,4006,1
33139,1381,0
33143,0,0
33147,1568,0
33151,4042,1
33155,2097,1
33159,0,0
33163,971,0
33167,4081,1
33171,2821,1
33175,29,0
33179,431,0
33183,4078,1
33187,3440,1
33191,0,0
33195,49,0
33199,3901,1
33203,3830,1
33207,0,0
33211,0,0
33215,2958,1
33219,3979,1
33223,496,0
33227,0,0
33231,2218,1
33235,4007,1
33239,1394,0
33243,0,0
33247,1567,0
33251,3906,1
33255,2139,1
33259,0,0
33263,956,0
33267,4080,1
33271,2829,1
33275,0,0
33279,406,0
33283,4075,1
33287,3491,1
33291,0,0
33295,29,0
33299,3932,1
33303,3838,1
33307,0,0
33311,0,0
33315,2933,1
33319,3969,1
33323,504,0
33327,0,0
33331,2198,1
33335,3999,1
33339,1392,0
33343,0,0
33347,1527,0
33351,4048,1
33355,2160,1
33359,75,0
33363,951,0
33367,3964,1
33371,2823,1
33375,0,0
33379,400,0
33383,4072,1
33387,3473,1
33391,0,0
33395,40,0
33399,3879,1
33403,3830,1
33407,0,0
33411,0,0
33415,2934,1
33419,3966,1
33423,518,0
33427,0,0
33431,2185,1
33435,4007,1
33439,1402,0
33443,0,0
33447,1531,0
33451,4044,1
33455,2177,1
33459,0,0
33463,900,0
33467,4073,1
33471,2829,1
33475,0,0
33479,416,0
33483,4036,1
33487,3446,1
33491,0,0
33495,37,0
33499,3664,1
33503,3813,1
33507,0,0
33511,0,0
33515,2789,1
33519,3961,1
33523,585,0
33527,0,0
33531,2109,1
33535,4001,1
33539,1426,0
33543,0,0
33547,1464,0
33551,4049,1
33555,2177,1
33559,0,0
33563,930,0
33567,4061,1
33571,2823,1
33575,26,0
33579,430,0
33583,4055,1
33587,3456,1
33591,0,0
33595,47,0
33599,3877,1
33603,3840,1
33607,0,0
33611,0,0
33615,2910,1
33619,3971,1
33623,483,0
33627,0,0
33631,2203,1
33635,3972,1
33639,1370,0
33643,0,0
33647,1550,0
33651,4038,1
33655,2160,1
33659,0,0
33663,961,0
33667,4049,1
33671,2809,1
33675,0,0
33679,434,0
33683,4069,1
33687,3477,1
33691,0,0
33695,38,0
33699,3882,1
33703,3847,1
33707,14,0
33711,0,0
33715,2901,1
33719,3963,1
33723,533,0
33727,0,0
33731,2173,1
33735,4012,1
33739,1410,0
33743,0,0
33747,1522,0
33751,4038,1
33755,2201,1
33759,191,0
33763,950,0
33767,4070,1
33771,2826,1
33775,0,0
33779,417,0
33783,4001,1
33787,3500,1
33791,0,0
33795,29,0
33799,3874,1
33803,3852,1
33807,0,0
33811,0,0
33815,2881,1
33819,3970,1
33823,529,0
33827,0,0
33831,2212,1
33835,3998,1
33839,1409,0
33843,0,0
33847,1539,0
33851,4027,1
33855,2200,1
33859,0,0
33863,941,0
33867,4076,1
33871,2868,1
33875,20,0
33879,412,0
33883,4075,1
33887,3504,1
33891,0,0
33895,19,0
33899,3857,1
33903,3846,1
33907,0,0
33911,0,0
33915,2910,1
33919,3967,1
33923,528,0
33927,0,0
33931,2179,1
33935,3997,1
33939,1407,0
33943,0,0
33947,1530,0
33951,4010,1
33955,2179,1
33959,0,0
33963,937,0
33967,3736,1
33971,2852,1
33975,0,0
33979,433,0
33983,4063,1
33987,3519,1
33991,0,0
33995,27,0
33999,3891,1
34003,3869,1
34007,0,0
34011,0,0
34015,2908,1
34019,3957,1
34023,505,0
34027,0,0
34031,2187,1
34035,4015,1
34039,1398,0
34043,0,0
34047,1477,0
34051,4050,1
34055,2207,1
34059,74,0
34063,949,0
34067,4077,1
34071,2872,1
34075,0,0
34079,419,0
34083,4057,1
34087,3501,1
34091,0,0
34095,19,0
34099,3886,1
34103,3873,1
34107,0,0
34111,0,0
34115,2932,1
34119,3970,1
34123,517,0
34127,0,0
34131,2212,1
34135,4004,1
34139,1399,0
34143,0,0
34147,1523,0
34151,4002,1
34155,2230,1
34159,0,0
34163,941,0
34167,3801,1
34171,2864,1
34175,0,0
34179,425,0
34183,4025,1
34187,3521,1
34191,0,0
34195,27,0
34199,3930,1
34203,3857,1
34207,0,0
34211,0,0
34215,2939,1
34219,3956,1
34223,514,0
34227,0,0
34231,2202,1
34235,3986,1
34239,1390,0
34243,0,0
34247,1548,0
34251,4061,1
34255,2214,1
34259,0,0
34263,960,0
34267,4067,1
34271,2882,1
34275,0,0
34279,438,0
34283,4067,1
34287,3514,1
34291,0,0
34295,10,0
34299,3925,1
34303,3859,1
34307,0,0
34311,0,0
34315,2872,1
34319,3961,1
34323,547,0
34327,0,0
34331,2129,1
34335,4007,1
34339,1457,0
34343,0,0
34347,1071,0
34351,4041,1
34355,2450,1
34359,0,0
34363,539,0
34367,3806,1
34371,3022,1
34375,0,0
34379,175,0
34383,3158,1
34387,3602,1
34391,0,0
34395,0,0
34399,2612,1
34403,3845,1
34407,531,0
34411,0,0
34415,2047,1
34419,3965,1
34423,1289,0
34427,0,0
34431,1493,0
34435,3961,1
34439,1955,1
34443,0,0
34447,959,0
34451,3968,1
34455,2548,1
34459,0,0
34463,566,0
34467,3863,1
34471,3078,1
34475,0,0
34479,192,0
34483,3212,1
34487,3636,1
34491,0,0
34495,0,0
34499,2634,1
34503,3874,1
34507,506,0
34511,0,0
34515,2063,1
34519,3939,1
34523,1241,0
34527,0,0
34531,1520,0
34535,3978,1
34539,1917,0
34543,0,0
34547,968,0
34551,4014,1
34555,2524,1
34559,161,0
34563,618,0
34567,4048,1
34571,2906,1
34575,0,0
34579,343,0
34583,4023,1
34587,3566,1
34591,0,0
34595,0,0
34599,3550,1
34603,3857,1
34607,0,0
34611,0,0
34615,2695,1
34619,3976,1
34623,725,0
34627,0,0
34631,2027,0
34635,3992,1
34639,1565,0
34643,0,0
34647,1358,0
34651,4055,1
34655,2329,1
34659,167,0
34663,802,0
34667,4047,1
34671,2959,1
34675,0,0
34679,321,0
34683,4013,1
34687,3566,1
34691,0,0
34695,0,0
34699,3555,1
34703,3872,1
34707,0,0
34711,0,0
34715,2675,1
34719,3977,1
34723,760,0
34727,0,0
34731,1982,0
34735,3971,1
34739,1595,0
34743,0,0
34747,1340,0
34751,4068,1
34755,2361,1
34759,0,0
34763,785,0
34767,4078,1
34771,2977,1
34775,0,0
34779,309,0
34783,4041,1
34787,3603,1
34791,0,0
34795,0,0
34799,3520,1
34803,3847,1
34807,0,0
34811,0,0
34815,2654,1
34819,3972,1
34823,785,0
34827,0,0
34831,1972,0
34835,3987,1
34839,1603,0
34843,0,0
34847,1346,0
34851,3999,1
34855,2322,1
34859,0,0
34863,781,0
34867,4026,1
34871,3004,1
34875,0,0
34879,329,0
34883,4062,1
34887,3610,1
34891,0,0
34895,0,0
34899,3452,1
34903,3872,1
34907,2,0
34911,0,0
34915,2594,1
34919,3962,1
34923,852,0
34927,0,0
34931,1889,0
34935,4000,1
34939,1692,0
34943,0,0
34947,1224,0
34951,4052,1
34955,2464,1
34959,0,0
34963,705,0
34967,4018,1
34971,3040,1
34975,0,0
34979,271,0
34983,4014,1
34987,3635,1
34991,0,0
34995,0,0
34999,3342,1
35003,3888,1
35007,18,0
35011,0,0
35015,2543,1
35019,3976,1
35023,847,0
35027,0,0
35031,1897,0
35035,4014,1
35039,1689,0
35043,0,0
35047,1257,0
35051,4049,1
35055,2433,1
35059,0,0
35063,719,0
35067,4074,1
35071,3056,1
35075,0,0
35079,268,0
35083,4034,1
35087,3633,1
35091,0,0
35095,0,0
35099,3372,1
35103,3881,1
35107,6,0
35111,0,0
35115,2565,1
35119,3969,1
35123,862,0
35127,0,0
35131,1871,0
35135,4005,1
35139,1707,0
35143,0,0
35147,1245,0
35151,4046,1
35155,2447,1
35159,24,0
35163,701,0
35167,4076,1
35171,3057,1
35175,0,0
35179,259,0
35183,4036,1
35187,3661,1
35191,0,0
35195,0,0
35199,3329,1
35203,3874,1
35207,21,0
35211,0,0
35215,2537,1
35219,3975,1
35223,901,0
35227,0,0
35231,1860,0
35235,4024,1
35239,1719,0
35243,0,0
35247,1221,0
35251,4058,1
35255,2480,1
35259,32,0
35263,707,0
35267,4059,1
35271,3073,1
35275,0,0
35279,265,0
35283,4022,1
35287,3646,1
35291,0,0
35295,0,0
35299,3388,1
35303,3884,1
35307,13,0
35311,0,0
35315,2531,1
35319,3979,1
35323,926,0
35327,0,0
35331,1880,0
35335,3971,1
35339,1711,0
35343,0,0
35347,1249,0
35351,4060,1
35355,2474,1
35359,0,0
35363,702,0
35367,4064,1
35371,3076,1
35375,0,0
35379,263,0
35383,4019,1
35387,3654,1
35391,0,0
35395,0,0
35399,3305,1
35403,3874,1
35407,34,0
35411,0,0
35415,2525,1
35419,3956,1
35423,918,0
35427,0,0
35431,1851,0
35435,4020,1
35439,1745,0
35443,0,0
35447,1231,0
35451,4063,1
35455,2484,1
35459,0,0
35463,697,0
35467,4051,1
35471,3123,1
35475,0,0
35479,260,0
35483,4014,1
35487,3658,1
35491,0,0
35495,0,0
35499,3356,1
35503,3899,1
35507,52,0
35511,0,0
35515,2506,1
35519,3990,1
35523,958,0
35527,0,0
35531,1843,0
35535,3991,1
35539,1773,0
35543,0,0
35547,1230,0
35551,4067,1
35555,2513,1
35559,0,0
35563,678,0
35567,3744,1
35571,3132,1
35575,0,0
35579,256,0
35583,4017,1
35587,3696,1
35591,0,0
35595,0,0
35599,3287,1
35603,3905,1
35607,75,0
35611,0,0
35615,2478,1
35619,3995,1
35623,983,0
35627,0,0
35631,1831,0
35635,4032,1
35639,1814,0
35643,0,0
35647,1197,0
35651,4067,1
35655,2535,1
35659,0,0
35663,652,0
35667,4075,1
35671,3132,1
35675,8,0
35679,249,0
35683,4005,1
35687,3676,1
35691,0,0
35695,0,0
35699,3228,1
35703,3910,1
35707,102,0
35711,0,0
35715,2481,1
35719,3992,1
35723,1019,0
35727,0,0
35731,1799,0
35735,4019,1
35739,1801,0
35743,0,0
35747,1154,0
35751,3927,1
35755,2482,1
35759,0,0
35763,639,0
35767,3983,1
35771,3139,1
35775,0,0
35779,246,0
35783,4016,1
35787,3685,1
35791,0,0
35795,0,0
35799,3251,1
35803,3901,1
35807,136,0
35811,0,0
35815,2449,1
35819,3976,1
35823,1025,0
35827,0,0
35831,1793,0
35835,4005,1
35839,1838,0
35843,0,0
35847,1154,0
35851,3996,1
35855,2563,1
35859,0,0
35863,672,0
35867,4050,1
35871,3168,1
35875,0,0
35879,222,0
35883,4022,1
35887,3705,1
35891,0,0
35895,0,0
35899,3190,1
35903,3905,1
35907,160,0
35911,0,0
35915,2425,1
35919,4001,1
35923,1054,0
35927,0,0
35931,1774,0
35935,4019,1
35939,1835,0
35943,0,0
35947,1171,0
35951,4062,1
35955,2584,1
35959,5,0
35963,632,0
35967,4067,1
35971,3175,1
35975,0,0
35979,224,0
35983,3994,1
35987,3713,1
35991,0,0
35995,0,0
35999,3188,1
36003,3917,1
36007,185,0
36011,0,0
36015,2400,1
36019,3987,1
36023,1077,0
36027,0,0
36031,1757,0
36035,3998,1
36039,1894,0
36043,0,0
36047,1129,0
36051,3790,1
36055,2578,1
36059,0,0
36063,610,0
36067,3941,1
36071,3183,1
36075,0,0
36079,210,0
36083,3989,1
36087,3741,1
36091,0,0
36095,0,0
36099,3147,1
36103,3909,1
36107,159,0
36111,0,0
36115,2391,1
36119,3991,1
36123,1087,0
36127,0,0
36131,1750,0
36135,4020,1
36139,1892,0
36143,0,0
36147,1091,0
36151,4066,1
36155,2594,1
36159,100,0
36163,602,0
36167,4072,1
36171,3203,1
36175,0,0
36179,202,0
36183,3988,1
36187,3732,1
36191,0,0
36195,0,0
36199,3077,1
36203,3914,1
36207,224,0
36211,0,0
36215,2373,1
36219,3991,1
36223,1101,0
36227,0,0
36231,1719,0
36235,4023,1
36239,1917,0
36243,0,0
36247,1089,0
36251,4065,1
36255,2653,1
36259,0,0
36263,563,0
36267,4056,1
36271,3241,1
36275,0,0
36279,157,0
36283,3777,1
36287,3755,1
36291,0,0
36295,0,0
36299,2388,1
36303,3900,1
36307,817,0
36311,0,0
36315,1764,0
36319,3970,1
36323,1627,0
36327,0,0
36331,1165,0
36335,3961,1
36339,2280,1
36343,0,0
36347,635,0
36351,3598,1
36355,2853,1
36359,0,0
36363,246,0
36367,3147,1
36371,3331,1
36375,0,0
36379,15,0
36383,2511,1
36387,3658,1
36391,608,0
36395,0,0
36399,1728,0
36403,3353,1
36407,1130,0
36411,0,0
36415,1140,0
36419,3008,1
36423,1465,0
36427,0,0
36431,611,0
36435,2442,1
36439,1518,0
36443,121,0
36447,300,0
36451,2277,1
36455,1903,1
36459,0,0
36463,115,0
36467,2141,1
36471,2490,1
36475,0,0
36479,0,0
36483,1906,0
36487,2889,1
36491,410,0
36495,0,0
36499,1583,0
36503,3143,1
36507,955,0
36511,0,0
36515,1210,0
36519,3332,1
36523,1532,0
36527,0,0
36531,861,0
36535,3499,1
36539,2198,1
36543,102,0
36547,480,0
36551,3284,1
36555,2775,1
36559,0,0
36563,194,0
36567,2893,1
36571,3261,1
36575,0,0
36579,0,0
36583,2355,1
36587,3602,1
36591,619,0
36595,0,0
36599,1631,0
36603,3171,1
36607,1090,0
36611,0,0
36615,1027,0
36619,2709,1
36623,1233,0
36627,177,0
36631,823,0
36635,1923,0
36639,805,0
36643,175,0
36647,573,0
36651,1613,0
36655,777,0
36659,0,0
36663,613,0
36667,1375,0
36671,712,0
36675,19,0
36679,1141,0
36683,1487,0
36687,626,0
36691,9,0
36695,778,0
36699,1102,0
36703,480,0
36707,0,0
36711,648,0
36715,968,0
36719,550,0
36723,0,0
36727,601,0
36731,881,0
36735,566,0
36739,0,0
36743,443,0
36747,879,0
36751,641,0
36755,0,0
36759,334,0
36763,869,0
36767,606,0
36771,0,0
36775,282,0
36779,880,0
36783,636,0
36787,0,0
36791,172,0
36795,860,0
36799,662,0
36803,3,0
36807,93,0
36811,772,0
36815,657,0
36819,104,0
36823,47,0
36827,744,0
36831,644,0
36835,190,0
36839,0,0
36843,563,0
36847,750,0
36851,297,0
36855,0,0
36859,488,0
36863,813,0
36867,352,0
36871,0,0
36875,432,0
36879,909,0
36883,424,0
36887,0,0
36891,278,0
36895,888,0
36899,498,0
36903,0,0
36907,148,0
36911,819,0
36915,515,0
36919,0,0
36923,85,0
36927,821,0
36931,584,0
36935,197,0
36939,5,0
36943,665,0
36947,694,0
36951,298,0
36955,0,0
36959,591,0
36963,804,0
36967,259,0
36971,0,0
36975,467,0
36979,900,0
36983,329,0
36987,0,0
36991,324,0
36995,885,0
36999,386,0
37003,0,0
37007,198,0
37011,816,0
37015,415,0
37019,0,0
37023,90,0
37027,801,0
37031,461,0
37035,0,0
37039,0,0
37043,634,0
37047,563,0
37051,15,0
37055,0,0
37059,575,0
37063,697,0
37067,82,0
37071,0,0
37075,428,0
37079,793,0
37083,175,0
37087,0,0
37091,285,0
37095,815,0
37099,271,0
37103,0,0
37107,181,0
37111,771,0
37115,341,0
37119,0,0
37123,82,0
37127,785,0
37131,455,0
37135,0,0
37139,0,0
37143,636,0
37147,612,0
37151,59,0
37155,0,0
37159,624,0
37163,759,0
37167,171,0
37171,0,0
37175,455,0
37179,871,0
37183,280,0
37187,0,0
37191,296,0
37195,861,0
37199,328,0
37203,0,0
37207,161,0
37211,805,0
37215,352,0
37219,0,0
37223,66,0
37227,769,0
37231,418,0
37235,0,0
37239,0,0
37243,529,0
37247,577,0
37251,29,0
37255,0,0
37259,557,0
37263,827,0
37267,241,0
37271,0,0
37275,504,0
37279,1024,0
37283,506,0
37287,0,0
37291,375,0
37295,1075,0
37299,638,0
37303,84,0
37307,204,0
37311,975,0
37315,627,0
37319,119,0
37323,79,0
37327,951,0
37331,692,0
37335,182,0
37339,0,0
37343,763,0
37347,803,0
37351,281,0
37355,0,0
37359,675,0
37363,927,0
37367,381,0
37371,0,0
37375,546,0
37379,1058,0
37383,511,0
37387,0,0
37391,392,0
37395,1079,0
37399,617,0
37403,83,0
37407,231,0
37411,1003,0
37415,649,0
37419,145,0
37423,89,0
37427,996,0
37431,682,0
37435,237,0
37439,0,0
37443,798,0
37447,839,0
37451,336,0
37455,0,0
37459,696,0
37463,953,0
37467,401,0
37471,0,0
37475,538,0
37479,1022,0
37483,446,0
37487,0,0
37491,342,0
37495,993,0
37499,476,0
37503,0,0
37507,216,0
37511,922,0
37515,486,0
37519,31,0
37523,77,0
37527,914,0
37531,575,0
37535,92,0
37539,0,0
37543,716,0
37547,733,0
37551,144,0
37555,0,0
37559,621,0
37563,832,0
37567,231,0
37571,0,0
37575,489,0
37579,954,0
37583,351,0
37587,0,0
37591,319,0
37595,954,0
37599,444,0
37603,0,0
37607,187,0
37611,917,0
37615,520,0
37619,27,0
37623,74,0
37627,921,0
37631,660,0
37635,107,0
37639,0,0
37643,732,0
37647,770,0
37651,196,0
37655,0,0
37659,626,0
37663,867,0
37667,276,0
37671,0,0
37675,478,0
37679,947,0
37683,347,0
37687,0,0
37691,299,0
37695,924,0
37699,446,0
37703,0,0
37707,169,0
37711,896,0
37715,431,0
37719,0,0
37723,64,0
37727,859,0
37731,513,0
37735,114,0
37739,0,0
37743,655,0
37747,676,0
37751,111,0
37755,0,0
37759,561,0
37763,768,0
37767,126,0
37771,0,0
37775,413,0
37779,859,0
37783,251,0
37787,0,0
37791,272,0
37795,888,0
37799,382,0
37803,0,0
37807,138,0
37811,841,0
37815,467,0
37819,0,0
37823,54,0
37827,842,0
37831,566,0
37835,71,0
37839,0,0
37843,663,0
37847,749,0
37851,185,0
37855,0,0
37859,601,0
37863,877,0
37867,296,0
37871,0,0
37875,470,0
37879,977,0
37883,414,0
37887,0,0
37891,293,0
37895,977,0
37899,495,0
37903,0,0
37907,155,0
37911,924,0
37915,584,0
37919,56,0
37923,51,0
37927,897,0
37931,661,0
37935,153,0
37939,0,0
37943,699,0
37947,820,0
37951,271,0
37955,0,0
37959,623,0
37963,946,0
37967,399,0
37971,0,0
37975,500,0
37979,1066,0
37983,548,0
37987,0,0
37991,350,0
37995,1081,0
37999,630,0
38003,99,0
38007,185,0
38011,998,0
38015,688,0
38019,175,0
38023,66,0
38027,975,0
38031,760,0
38035,299,0
38039,0,0
38043,783,0
38047,910,0
38051,348,0
38055,0,0
38059,682,0
38063,1013,0
38067,444,0
38071,0,0
38075,530,0
38079,1089,0
38083,528,0
38087,0,0
38091,333,0
38095,1056,0
38099,589,0
38103,22,0
38107,171,0
38111,967,0
38115,631,0
38119,147,0
38123,40,0
38127,966,0
38131,710,0
38135,250,0
38139,0,0
38143,765,0
38147,861,0
38151,328,0
38155,0,0
38159,673,0
38163,918,0
38167,331,0
38171,0,0
38175,473,0
38179,982,0
38183,414,0
38187,0,0
38191,280,0
38195,951,0
38199,460,0
38203,0,0
38207,166,0
38211,902,0
38215,541,0
38219,54,0
38223,38,0
38227,890,0
38231,638,0
38235,176,0
38239,0,0
38243,702,0
38247,777,0
38251,205,0
38255,0,0
38259,582,0
38263,871,0
38267,294,0
38271,0,0
38275,427,0
38279,918,0
38283,346,0
38287,0,0
38291,276,0
38295,910,0
38299,403,0
38303,0,0
38307,146,0
38311,855,0
38315,471,0
38319,0,0
38323,38,0
38327,823,0
38331,556,0
38335,57,0
38339,0,0
38343,566,0
38347,743,0
38351,158,0
38355,0,0
38359,571,0
38363,850,0
38367,260,0
38371,0,0
38375,431,0
38379,934,0
38383,418,0
38387,0,0
38391,277,0
38395,932,0
38399,476,0
38403,0,0
38407,144,0
38411,906,0
38415,557,0
38419,35,0
38423,40,0
38427,896,0
38431,683,0
38435,153,0
38439,0,0
38443,734,0
38447,885,0
38451,292,0
38455,0,0
38459,580,0
38463,972,0
38467,400,0
38471,0,0
38475,459,0
38479,1023,0
38483,494,0
38487,0,0
38491,296,0
38495,1001,0
38499,538,0
38503,2,0
38507,148,0
38511,943,0
38515,607,0
38519,118,0
38523,38,0
38527,930,0
38531,706,0
38535,280,0
38539,0,0
38543,752,0
38547,864,0
38551,307,0
38555,0,0
38559,588,0
38563,969,0
38567,400,0
38571,0,0
38575,454,0
38579,1007,0
38583,449,0
38587,0,0
38591,290,0
38595,985,0
38599,541,0
38603,1,0
38607,184,0
38611,927,0
38615,601,0
38619,67,0
38623,55,0
38627,892,0
38631,685,0
38635,283,0
38639,0,0
38643,731,0
38647,851,0
38651,276,0
38655,0,0
38659,597,0
38663,931,0
38667,352,0
38671,0,0
38675,426,0
38679,954,0
38683,432,0
38687,0,0
38691,240,0
38695,896,0
38699,446,0
38703,0,0
38707,159,0
38711,866,0
38715,510,0
38719,0,0
38723,25,0
38727,824,0
38731,615,0
38735,83,0
38739,0,0
38743,661,0
38747,753,0
38751,200,0
38755,0,0
38759,582,0
38763,917,0
38767,330,0
38771,0,0
38775,422,0
38779,962,0
38783,429,0
38787,0,0
38791,254,0
38795,924,0
38799,497,0
38803,3,0
38807,130,0
38811,924,0
38815,572,0
38819,104,0
38823,18,0
38827,866,0
38831,683,0
38835,195,0
38839,0,0
38843,741,0
38847,846,0
38851,272,0
38855,0,0
38859,590,0
38863,951,0
38867,347,0
38871,0,0
38875,425,0
38879,986,0
38883,463,0
38887,0,0
38891,251,0
38895,950,0
38899,510,0
38903,14,0
38907,151,0
38911,939,0
38915,594,0
38919,96,0
38923,30,0
38927,864,0
38931,671,0
38935,183,0
38939,0,0
38943,785,0
38947,834,0
38951,233,0
38955,0,0
38959,598,0
38963,935,0
38967,317,0
38971,0,0
38975,417,0
38979,949,0
38983,404,0
38987,0,0
38991,257,0
38995,915,0
38999,463,0
39003,0,0
39007,147,0
39011,887,0
39015,520,0
39019,56,0
39023,20,0
39027,807,0
39031,619,0
39035,102,0
39039,0,0
39043,692,0
39047,788,0
39051,184,0
39055,0,0
39059,562,0
39063,911,0
39067,288,0
39071,0,0
39075,405,0
39079,946,0
39083,386,0
39087,0,0
39091,236,0
39095,891,0
39099,446,0
39103,0,0
39107,141,0
39111,879,0
39115,508,0
39119,0,0
39123,27,0
39127,798,0
39131,644,0
39135,89,0
39139,0,0
39143,661,0
39147,773,0
39151,187,0
39155,0,0
39159,562,0
39163,906,0
39167,285,0
39171,0,0
39175,394,0
39179,934,0
39183,362,0
39187,0,0
39191,230,0
39195,870,0
39199,422,0
39203,0,0
39207,146,0
39211,856,0
39215,471,0
39219,0,0
39223,13,0
39227,752,0
39231,584,0
39235,60,0
39239,0,0
39243,640,0
39247,752,0
39251,137,0
39255,0,0
39259,486,0
39263,872,0
39267,221,0
39271,0,0
39275,346,0
39279,874,0
39283,300,0
39287,0,0
39291,199,0
39295,822,0
39299,347,0
39303,0,0
39307,107,0
39311,800,0
39315,443,0
39319,50,0
39323,0,0
39327,744,0
39331,601,0
39335,196,0
39339,0,0
39343,625,0
39347,783,0
39351,222,0
39355,0,0
39359,530,0
39363,912,0
39367,313,0
39371,0,0
39375,382,0
39379,945,0
39383,406,0
39387,0,0
39391,220,0
39395,891,0
39399,476,0
39403,0,0
39407,113,0
39411,882,0
39415,575,0
39419,51,0
39423,0,0
39427,770,0
39431,683,0
39435,166,0
39439,0,0
39443,653,0
39447,842,0
39451,269,0
39455,0,0
39459,548,0
39463,953,0
39467,347,0
39471,0,0
39475,365,0
39479,952,0
39483,415,0
39487,0,0
39491,181,0
39495,895,0
39499,481,0
39503,15,0
39507,102,0
39511,875,0
39515,562,0
39519,42,0
39523,0,0
39527,774,0
39531,693,0
39535,170,0
39539,0,0
39543,662,0
39547,861,0
39551,297,0
39555,0,0
39559,553,0
39563,973,0
39567,370,0
39571,0,0
39575,393,0
39579,979,0
39583,444,0
39587,0,0
39591,220,0
39595,911,0
39599,513,0
39603,0,0
39607,98,0
39611,894,0
39615,574,0
39619,125,0
39623,0,0
39627,781,0
39631,688,0
39635,179,0
39639,0,0
39643,665,0
39647,846,0
39651,262,0
39655,0,0
39659,502,0
39663,965,0
39667,378,0
39671,0,0
39675,362,0
39679,957,0
39683,428,0
39687,0,0
39691,197,0
39695,895,0
39699,467,0
39703,0,0
39707,93,0
39711,873,0
39715,551,0
39719,106,0
39723,0,0
39727,754,0
39731,681,0
39735,228,0
39739,4,0
39743,653,0
39747,837,0
39751,250,0
39755,0,0
39759,528,0
39763,980,0
39767,369,0
39771,0,0
39775,362,0
39779,974,0
39783,445,0
39787,0,0
39791,209,0
39795,892,0
39799,481,0
39803,0,0
39807,89,0
39811,891,0
39815,565,0
39819,114,0
39823,14,0
39827,738,0
39831,684,0
39835,221,0
39839,0,0
39843,628,0
39847,789,0
39851,189,0
39855,0,0
39859,489,0
39863,903,0
39867,289,0
39871,0,0
39875,335,0
39879,924,0
39883,397,0
39887,0,0
39891,182,0
39895,902,0
39899,486,0
39903,25,0
39907,80,0
39911,913,0
39915,589,0
39919,140,0
39923,0,0
39927,753,0
39931,735,0
39935,247,0
39939,0,0
39943,657,0
39947,859,0
39951,290,0
39955,0,0
39959,504,0
39963,965,0
39967,369,0
39971,0,0
39975,346,0
39979,954,0
39983,435,0
39987,0,0
39991,243,0
39995,912,0
39999,482,0
40003,0,0
40007,105,0
40011,857,0
40015,543,0
40019,10,0
40023,0,0
40027,708,0
40031,694,0
40035,142,0
40039,0,0
40043,632,0
40047,829,0
40051,239,0
40055,0,0
40059,473,0
40063,935,0
40067,343,0
40071,0,0
40075,337,0
40079,942,0
40083,439,0
40087,0,0
40091,189,0
40095,897,0
40099,494,0
40103,36,0
40107,79,0
40111,917,0
40115,611,0
40119,148,0
40123,0,0
40127,751,0
40131,744,0
40135,285,0
40139,0,0
40143,653,0
40147,844,0
40151,270,0
40155,0,0
40159,492,0
40163,950,0
40167,355,0
40171,0,0
40175,310,0
40179,940,0
40183,423,0
40187,0,0
40191,186,0
40195,894,0
40199,473,0
40203,2,0
40207,71,0
40211,894,0
40215,568,0
40219,93,0
40223,0,0
40227,717,0
40231,717,0
40235,181,0
40239,0,0
40243,618,0
40247,840,0
40251,316,0
40255,0,0
40259,486,0
40263,948,0
40267,369,0
40271,0,0
40275,322,0
40279,968,0
40283,457,0
40287,0,0
40291,200,0
40295,911,0
40299,535,0
40303,31,0
40307,74,0
40311,897,0
40315,625,0
40319,102,0
40323,0,0
40327,730,0
40331,760,0
40335,205,0
40339,0,0
40343,625,0
40347,849,0
40351,274,0
40355,0,0
40359,468,0
40363,934,0
40367,362,0
40371,0,0
40375,311,0
40379,942,0
40383,436,0
40387,0,0
40391,178,0
40395,897,0
40399,501,0
40403,0,0
40407,73,0
40411,872,0
40415,583,0
40419,79,0
40423,0,0
40427,716,0
40431,750,0
40435,207,0
40439,0,0
40443,573,0
40447,854,0
40451,294,0
40455,0,0
40459,470,0
40463,957,0
40467,366,0
40471,0,0
40475,316,0
40479,951,0
40483,443,0
40487,0,0
40491,178,0
40495,893,0
40499,491,0
40503,0,0
40507,33,0
40511,881,0
40515,575,0
40519,67,0
40523,0,0
40527,693,0
40531,742,0
40535,190,0
40539,0,0
40543,582,0
40547,869,0
40551,299,0
40555,0,0
40559,485,0
40563,978,0
40567,410,0
40571,0,0
40575,322,0
40579,977,0
40583,493,0
40587,0,0
40591,168,0
40595,922,0
40599,551,0
40603,20,0
40607,42,0
40611,898,0
40615,626,0
40619,188,0
40623,0,0
40627,731,0
40631,777,0
40635,213,0
40639,0,0
40643,617,0
40647,860,0
40651,285,0
40655,0,0
40659,445,0
40663,914,0
40667,339,0
40671,0,0
40675,285,0
40679,910,0
40683,426,0
40687,0,0
40691,154,0
40695,893,0
40699,486,0
40703,0,0
40707,48,0
40711,870,0
40715,584,0
40719,160,0
40723,3,0
40727,697,0
40731,763,0
40735,217,0
40739,0,0
40743,604,0
40938,0,0
40939,0,0
40943,615,0
40947,888,0
40951,318,0
40955,0,0
40959,454,0
40963,952,0
40967,403,0
40971,0,0
40975,295,0
40979,949,0
40983,479,0
40987,0,0
40991,102,0
40995,903,0
40999,534,0
41003,23,0
41007,54,0
41011,888,0
41015,629,0
41019,159,0
41023,0,0
41027,710,0
41031,793,0
41035,236,0
41039,0,0
41043,605,0
41047,889,0
41051,309,0
41055,0,0
41059,441,0
41063,933,0
41067,371,0
41071,0,0
41075,284,0
41079,931,0
41083,462,0
41087,0,0
41091,159,0
41095,899,0
41099,520,0
41103,0,0
41107,51,0
41111,857,0
41115,629,0
41119,122,0
41123,0,0
41127,685,0
41131,796,0
41135,212,0
41139,0,0
41143,586,0
41147,892,0
41151,298,0
41155,0,0
41159,430,0
41163,947,0
41167,392,0
41171,0,0
41175,269,0
41179,917,0
41183,451,0
41187,0,0
41191,109,0
41195,878,0
41199,519,0
41203,0,0
41207,36,0
41211,861,0
41215,634,0
41219,134,0
41223,0,0
41227,699,0
41231,809,0
41235,240,0
41239,0,0
41243,628,0
41247,911,0
41251,360,0
41255,0,0
41259,453,0
41263,992,0
41267,477,0
41271,0,0
41275,278,0
41279,974,0
41283,555,0
41287,19,0
41291,155,0
41295,948,0
41299,611,0
41303,100,0
41307,36,0
41311,908,0
41315,688,0
41319,291,0
41323,0,0
41327,734,0
41331,850,0
41335,296,0
41339,0,0
41343,637,0
41347,964,0
41351,379,0
41355,0,0
41359,460,0
41363,1001,0
41367,465,0
41371,0,0
41375,274,0
41379,961,0
41383,522,0
41387,0,0
41391,132,0
41395,914,0
41399,572,0
41403,53,0
41407,24,0
41411,884,0
41415,658,0
41419,249,0
41423,0,0
41427,723,0
41431,835,0
41435,354,0
41439,0,0
41443,597,0
41447,916,0
41451,320,0
41455,0,0
41459,418,0
41463,947,0
41467,397,0
41471,0,0
41475,241,0
41479,898,0
41483,454,0
41487,0,0
41491,123,0
41495,878,0
41499,514,0
41503,67,0
41507,26,0
41511,854,0
41515,614,0
41519,201,0
41523,0,0
41527,689,0
41531,786,0
41535,189,0
41539,0,0
41543,579,0
41547,904,0
41551,292,0
41555,0,0
41559,398,0
41563,929,0
41567,380,0
41571,0,0
41575,230,0
41579,894,0
41583,441,0
41587,0,0
41591,131,0
41595,868,0
41599,493,0
41603,0,0
41607,0,0
41611,804,0
41615,614,0
41619,214,0
41623,0,0
41627,672,0
41631,782,0
41635,187,0
41639,0,0
41643,555,0
41647,886,0
41651,286,0
41655,0,0
41659,394,0
41663,924,0
41667,380,0
41671,0,0
41675,229,0
41679,879,0
41683,450,0
41687,0,0
41691,131,0
41695,874,0
41699,536,0
41703,53,0
41707,17,0
41711,814,0
41715,659,0
41719,130,0
41723,0,0
41727,717,0
41731,789,0
41735,224,0
41739,0,0
41743,562,0
41747,915,0
41751,314,0
41755,0,0
41759,389,0
41763,938,0
41767,413,0
41771,0,0
41775,226,0
41779,895,0
41783,501,0
41787,0,0
41791,124,0
41795,895,0
41799,567,0
41803,40,0
41807,37,0
41811,833,0
41815,679,0
41819,286,0
41823,0,0
41827,690,0
41831,837,0
41835,267,0
41839,0,0
41843,568,0
41847,954,0
41851,371,0
41855,0,0
41859,449,0
41863,968,0
41867,441,0
41871,0,0
41875,235,0
41879,918,0
41883,484,0
41887,0,0
41891,121,0
41895,890,0
41899,559,0
41903,82,0
41907,12,0
41911,819,0
41915,654,0
41919,266,0
41923,0,0
41927,674,0
41931,819,0
41935,236,0
41939,0,0
41943,556,0
41947,938,0
41951,318,0
41955,0,0
41959,385,0
41963,939,0
41967,411,0
41971,0,0
41975,222,0
41979,900,0
41983,463,0
41987,0,0
41991,121,0
41995,893,0
41999,544,0
42003,66,0
42007,13,0
42011,799,0
42015,670,0
42019,212,0
42023,0,0
42027,667,0
42031,834,0
42035,275,0
42039,0,0
42043,559,0
42047,950,0
42051,346,0
42055,0,0
42059,376,0
42063,936,0
42067,415,0
42071,0,0
42075,220,0
42079,900,0
42083,492,0
42087,0,0
42091,112,0
42095,883,0
42099,544,0
42103,38,0
42107,7,0
42111,766,0
42115,666,0
42119,158,0
42123,0,0
42127,649,0
42131,825,0
42135,239,0
42139,0,0
42143,547,0
42147,941,0
42151,344,0
42155,0,0
42159,378,0
42163,960,0
42167,456,0
42171,0,0
42175,226,0
42179,897,0
42183,466,0
42187,0,0
42191,109,0
42195,876,0
42199,550,0
42203,123,0
42207,1,0
42211,780,0
42215,687,0
42219,238,0
42223,0,0
42227,657,0
42231,829,0
42235,290,0
42239,0,0
42243,534,0
42247,952,0
42251,343,0
42255,0,0
42259,363,0
42263,950,0
42267,432,0
42271,0,0
42275,226,0
42279,910,0
42283,482,0
42287,2,0
42291,114,0
42295,878,0
42299,567,0
42303,59,0
42307,0,0
42311,757,0
42315,670,0
42319,162,0
42323,0,0
42327,656,0
42331,831,0
42335,240,0
42339,0,0
42343,536,0
42347,939,0
42351,329,0
42355,0,0
42359,370,0
42363,949,0
42367,454,0
42371,0,0
42375,220,0
42379,904,0
42383,491,0
42387,0,0
42391,109,0
42395,882,0
42399,587,0
42403,58,0
42407,2,0
42411,770,0
42415,735,0
42419,200,0
42423,0,0
42427,665,0
42431,855,0
42435,281,0
42439,0,0
42443,536,0
42447,964,0
42451,366,0
42455,0,0
42459,394,0
42463,943,0
42467,415,0
42471,0,0
42475,205,0
42479,886,0
42483,476,0
42487,7,0
42491,97,0
42495,884,0
42499,562,0
42503,59,0
42507,1,0
42511,754,0
42515,697,0
42519,185,0
42523,0,0
42527,648,0
42531,836,0
42535,282,0
42539,0,0
42543,514,0
42547,942,0
42551,357,0
42555,0,0
42559,356,0
42563,960,0
42567,420,0
42571,0,0
42575,220,0
42579,896,0
42583,507,0
42587,6,0
42591,98,0
42595,894,0
42599,608,0
42603,77,0
42607,0,0
42611,690,0
42615,708,0
42619,185,0
42623,0,0
42627,639,0
42631,847,0
42635,262,0
42639,0,0
42643,500,0
42647,959,0
42651,339,0
42655,0,0
42659,367,0
42663,950,0
42667,443,0
42671,0,0
42675,210,0
42679,909,0
42683,511,0
42687,0,0
42691,90,0
42695,882,0
42699,577,0
42703,48,0
42707,0,0
42711,729,0
42715,750,0
42719,164,0
42723,0,0
42727,640,0
42731,840,0
42735,253,0
42739,0,0
42743,505,0
42747,948,0
42751,355,0
42755,0,0
42759,352,0
42763,954,0
42767,430,0
42771,0,0
42775,207,0
42779,890,0
42783,481,0
42787,0,0
42791,50,0
42795,869,0
42799,566,0
42803,31,0
42807,0,0
42811,723,0
42815,723,0
42819,144,0
42823,0,0
42827,632,0
42831,824,0
42835,254,0
42839,0,0
42843,491,0
42847,945,0
42851,356,0
42855,0,0
42859,322,0
42863,950,0
42867,427,0
42871,0,0
42875,199,0
42879,907,0
42883,501,0
42887,19,0
42891,82,0
42895,908,0
42899,617,0
42903,95,0
42907,0,0
42911,705,0
42915,702,0
42919,149,0
42923,0,0
42927,579,0
42931,722,0
42935,100,0
42939,0,0
42943,405,0
42947,786,0
42951,82,0
42955,0,0
42959,242,0
42963,766,0
42967,241,0
42971,0,0
42975,218,0
42979,1101,0
42983,896,0
42987,525,0
42991,318,0
42995,1335,0
42999,1205,0
43003,776,0
43007,256,0
43011,1191,0
43015,1281,0
43019,815,0
43023,141,0
43027,940,0
43031,1212,0
43035,773,0
43039,59,0
43043,650,0
43047,1188,0
43051,674,0
43055,93,0
43059,390,0
43063,1030,0
43067,606,0
43071,120,0
43075,283,0
43079,1136,0
43083,831,0
43087,354,0
43091,152,0
43095,1136,0
43099,917,0
43103,458,0
43107,15,0
43111,947,0
43115,1062,0
43119,582,0
43123,0,0
43127,753,0
43131,1140,0
43135,633,0
43139,36,0
43143,674,0
43147,1213,0
43151,691,0
43155,114,0
43159,439,0
43163,1173,0
43167,734,0
43171,193,0
43175,254,0
43179,1066,0
43183,757,0
43187,242,0
43191,100,0
43195,997,0
43199,786,0
43203,299,0
43207,0,0
43211,774,0
43215,893,0
43219,414,0
43223,0,0
43227,668,0
43231,988,0
43235,528,0
43239,0,0
43243,523,0
43247,1065,0
43251,655,0
43255,33,0
43259,334,0
43263,1069,0
43267,755,0
43271,201,0
43275,183,0
43279,949,0
43283,766,0
43287,319,0
43291,72,0
43295,907,0
43299,813,0
43303,443,0
43307,21,0
43311,659,0
43315,905,0
43319,571,0
43323,0,0
43327,500,0
43331,922,0
43335,602,0
43339,0,0
43343,323,0
43347,952,0
43351,692,0
43355,0,0
43359,157,0
43363,856,0
43367,734,0
43371,177,0
43375,56,0
43379,725,0
43383,775,0
43387,343,0
43391,3,0
43395,631,0
43399,814,0
43403,555,0
43407,0,0
43411,385,0
43415,913,0
43419,726,0
43423,0,0
43427,242,0
43431,953,0
43435,843,0
43439,15,0
43443,110,0
43447,920,0
43451,992,0
43455,269,0
43459,8,0
43463,725,0
43467,1028,0
43471,509,0
43475,0,0
43479,626,0
43483,1077,0
43487,879,0
43491,0,0
43495,354,0
43499,1009,0
43503,1220,0
43507,0,0
43511,0,0
43515,729,0
43519,1630,0
43523,841,0
43527,0,0
43531,146,0
43535,1858,0
43539,2176,1
43543,0,0
43547,0,0
43551,1950,0
43555,3186,1
43559,373,0
43563,0,0
43567,1732,0
43571,3851,1
43575,1232,0
43579,0,0
43583,1284,0
43587,3770,1
43591,1896,0
43595,0,0
43599,726,0
43603,3051,1
43607,1972,1
43611,0,0
43615,459,0
43619,2500,1
43623,2079,1
43627,0,0
43631,138,0
43635,2151,1
43639,2320,1
43643,0,0
43647,16,0
43651,1757,0
43655,2286,1
43659,68,0
43663,0,0
43667,1448,0
43671,2368,1
43675,336,0
43679,0,0
43683,1280,0
43687,3610,1
43691,1662,0
43695,0,0
43699,869,0
43703,3559,1
43707,2349,1
43711,0,0
43715,530,0
43719,3277,1
43723,2939,1
43727,0,0
43731,201,0
43735,3317,1
43739,3493,1
43743,0,0
43747,0,0
43751,2853,1
43755,3846,1
43759,180,0
43763,0,0
43767,2316,1
43771,3971,1
43775,941,0
43779,0,0
43783,1777,0
43787,3998,1
43791,1704,0
43795,0,0
43799,1153,0
43803,4014,1
43807,2406,1
43811,0,0
43815,672,0
43819,4049,1
43823,2964,1
43827,0,0
43831,251,0
43835,3968,1
43839,3561,1
43843,0,0
43847,0,0
43851,3281,1
43855,3861,1
43859,2,0
43863,0,0
43867,2579,1
43871,3953,1
43875,802,0
43879,0,0
43883,1930,0
43887,4037,1
43891,1588,0
43895,0,0
43899,1309,0
43903,4006,1
43907,2336,1
43911,0,0
43915,761,0
43919,3652,1
43923,2961,1
43927,0,0
43931,291,0
43935,4046,1
43939,3588,1
43943,0,0
43947,0,0
43951,3456,1
43955,3871,1
43959,0,0
43963,0,0
43967,2647,1
43971,3977,1
43975,779,0
43979,0,0
43983,1938,0
43987,4023,1
43991,1622,0
43995,0,0
43999,1304,0
44003,3792,1
44007,2350,1
44011,0,0
44015,753,0
44019,4063,1
44023,2988,1
44027,0,0
44031,278,0
44035,4047,1
44039,3584,1
44043,0,0
44047,0,0
44051,3354,1
44055,3886,1
44059,52,0
44063,0,0
44067,2489,1
44071,3990,1
44075,939,0
44079,0,0
44083,1823,0
44087,3995,1
44091,1711,0
44095,0,0
44099,1230,0
44103,4028,1
44107,2407,1
44111,0,0
44115,730,0
44119,3786,1
44123,3017,1
44127,0,0
44131,290,0
44135,4017,1
44139,3608,1
44143,0,0
44147,0,0
44151,3447,1
44155,3877,1
44159,0,0
44163,0,0
44167,2596,1
44171,3988,1
44175,843,0
44179,0,0
44183,1882,0
44187,4012,1
44191,1679,0
44195,0,0
44199,1255,0
44203,4058,1
44207,2415,1
44211,0,0
44215,700,0
44219,4064,1
44223,3047,1
44227,0,0
44231,243,0
44235,4006,1
44239,3626,1
44243,0,0
44247,0,0
44251,3214,1
44255,3872,1
44259,17,0
44263,0,0
44267,2615,1
44271,3988,1
44275,839,0
44279,0,0
44283,1929,0
44287,4008,1
44291,1677,0
44295,0,0
44299,1266,0
44303,3542,1
44307,2410,1
44311,0,0
44315,723,0
44319,4070,1
44323,3058,1
44327,0,0
44331,270,0
44335,4060,1
44339,3651,1
44343,0,0
44347,0,0
44351,3388,1
44355,3862,1
44359,27,0
44363,0,0
44367,2520,1
44371,3971,1
44375,911,0
44379,0,0
44383,1867,0
44387,4012,1
44391,1716,0
44395,0,0
44399,1212,0
44403,3884,1
44407,2462,1
44411,0,0
44415,680,0
44419,4058,1
44423,3096,1
44427,0,0
44431,246,0
44435,4016,1
44439,3676,1
44443,0,0
44447,0,0
44451,3271,1
44455,3914,1
44459,134,0
44463,0,0
44467,2460,1
44471,3994,1
44475,968,0
44479,0,0
44483,1804,0
44487,4021,1
44491,1814,0
44495,0,0
44499,1165,0
44503,3595,1
44507,2518,1
44511,0,0
44515,617,0
44519,4052,1
44523,3114,1
44527,0,0
44531,225,0
44535,4008,1
44539,3735,1
44543,0,0
44547,0,0
44551,3195,1
44555,3895,1
44559,132,0
44563,0,0
44567,2465,1
44571,4007,1
44575,1023,0
44579,0,0
44583,1803,0
44587,4027,1
44591,1834,0
44595,0,0
44599,1170,0
44603,3645,1
44607,2515,1
44611,0,0
44615,633,0
44619,4063,1
44623,3112,1
44627,0,0
44631,223,0
44635,4030,1
44639,3679,1
44643,0,0
44647,0,0
44651,3230,1
44655,3886,1
44659,133,0
44663,0,0
44667,2464,1
44671,4008,1
44675,1036,0
44679,0,0
44683,1807,0
44687,4032,1
44691,1842,0
44695,0,0
44699,1167,0
44703,3605,1
44707,2537,1
44711,0,0
44715,637,0
44719,4076,1
44723,3154,1
44727,0,0
44731,219,0
44735,4009,1
44739,3705,1
44743,7,0
44747,0,0
44751,3231,1
44755,3910,1
44759,164,0
44763,0,0
44767,2467,1
44771,3991,1
44775,1039,0
44779,0,0
44783,1820,0
44787,4007,1
44791,1818,0
44795,0,0
44799,1141,0
44803,4003,1
44807,2568,1
44811,0,0
44815,616,0
44819,3995,1
44823,3184,1
44827,0,0
44831,207,0
44835,4008,1
44839,3725,1
44843,0,0
44847,0,0
44851,3180,1
44855,3900,1
44859,176,0
44863,0,0
44867,2400,1
44871,3963,1
44875,1102,0
44879,0,0
44883,1714,0
44887,4018,1
44891,1911,0
44895,0,0
44899,1044,0
44903,4035,1
44907,2673,1
44911,0,0
44915,452,0
44919,3994,1
44923,3262,1
44927,0,0
44931,59,0
44935,2865,1
44939,3748,1
44943,204,0
44947,0,0
44951,2270,1
44955,3889,1
44959,878,0
44963,0,0
44967,1686,0
44971,3946,1
44975,1622,0
44979,0,0
44983,1134,0
44987,3956,1
44991,2243,1
44995,0,0
44999,623,0
45003,3877,1
45007,2828,1
45011,0,0
45015,268,0
45019,3280,1
45023,3319,1
45027,0,0
45031,31,0
45035,2739,1
45039,3770,1
45043,284,0
45047,0,0
45051,2188,1
45055,3883,1
45059,978,0
45063,0,0
45067,1632,0
45071,3944,1
45075,1680,0
45079,0,0
45083,1079,0
45087,3935,1
45091,2281,1
45095,1,0
45099,598,0
45103,3747,1
45107,2850,1
45111,0,0
45115,255,0
45119,3137,1
45123,3323,1
45127,0,0
45131,7,0
45135,2618,1
45139,3739,1
45143,419,0
45147,0,0
45151,2081,1
45155,3891,1
45159,1079,0
45163,0,0
45167,1511,0
45171,3945,1
45175,1753,0
45179,0,0
45183,1006,0
45187,3889,1
45191,2328,1
45195,0,0
45199,545,0
45203,3726,1
45207,2858,1
45211,0,0
45215,204,0
45219,3011,1
45223,3323,1
45227,0,0
45231,2,0
45235,2519,1
45239,3749,1
45243,468,0
45247,0,0
45251,2003,0
45255,3903,1
45259,1144,0
45263,0,0
45267,1475,0
45271,3897,1
45275,1773,0
45279,0,0
45283,946,0
45287,3883,1
45291,2350,1
45295,16,0
45299,534,0
45303,3505,1
45307,2875,1
45311,0,0
45315,209,0
45319,2969,1
45323,3309,1
45327,0,0
45331,0,0
45335,2489,1
45339,3716,1
45343,481,0
45347,0,0
45351,1948,0
45355,3871,1
45359,1138,0
45363,0,0
45367,1450,0
45371,3908,1
45375,1786,0
45379,0,0
45383,934,0
45387,3777,1
45391,2340,1
45395,0,0
45399,532,0
45403,3384,1
45407,2878,1
45411,45,0
45415,180,0
45419,2887,1
45423,3297,1
45427,2,0
45431,0,0
45435,2424,1
45439,3685,1
45443,554,0
45447,0,0
45451,1887,0
45455,3845,1
45459,1170,0
45463,0,0
45467,1372,0
45471,3861,1
45475,1776,0
45479,0,0
45483,904,0
45487,3692,1
45491,2340,1
45495,0,0
45499,610,0
45503,3696,1
45507,2839,1
45511,0,0
45515,316,0
45519,3856,1
45523,3382,1
45527,0,0
45531,46,0
45535,3248,1
45539,3793,1
45543,0,0
45547,0,0
45551,2560,1
45555,3943,1
45559,733,0
45563,0,0
45567,1953,0
45571,3998,1
45575,1522,0
45579,0,0
45583,1344,0
45587,3952,1
45591,2147,1
45595,0,0
45599,818,0
45603,4062,1
45607,2818,1
45611,25,0
45615,364,0
45619,4010,1
45623,3383,1
45627,0,0
45631,35,0
45635,3336,1
45639,3836,1
45643,0,0
45647,0,0
45651,2537,1
45655,3937,1
45659,997,0
45663,0,0
45667,1624,0
45671,3973,1
45675,1744,0
45679,0,0
45683,1093,0
45687,3991,1
45691,2352,1
45695,32,0
45699,619,0
45703,3890,1
45707,2923,1
45711,0,0
45715,241,0
45719,3524,1
45723,3443,1
45727,0,0
45731,0,0
45735,2904,1
45739,3826,1
45743,242,0
45747,0,0
45751,2315,1
45755,3944,1
45759,972,0
45763,0,0
45767,1734,0
45771,3994,1
45775,1725,0
45779,0,0
45783,1155,0
45787,4018,1
45791,2341,1
45795,49,0
45799,651,0
45803,3916,1
45807,2916,1
45811,0,0
45815,266,0
45819,3922,1
45823,3414,1
45827,0,0
45831,43,0
45835,3741,1
45839,3811,1
45843,0,0
45847,0,0
45851,2784,1
45855,3956,1
45859,619,0
45863,0,0
45867,1980,0
45871,4003,1
45875,1633,0
45879,0,0
45883,1277,0
45887,3970,1
45891,2327,1
45895,0,0
45899,722,0
45903,4054,1
45907,2933,1
45911,43,0
45915,242,0
45919,3862,1
45923,3488,1
45927,0,0
45931,0,0
45935,2651,1
45939,3841,1
45943,451,0
45947,0,0
45951,2052,1
45955,3940,1
45959,1187,0
45963,0,0
45967,1475,0
45971,3972,1
45975,1894,0
45979,0,0
45983,932,0
45987,3861,1
45991,2456,1
45995,0,0
45999,484,0
46003,3710,1
46007,2985,1
46011,0,0
46015,213,0
46019,3991,1
46023,3430,1
46027,0,0
46031,2,0
46035,3630,1
46039,3830,1
46043,0,0
46047,0,0
46051,2757,1
46055,3971,1
46059,648,0
46063,0,0
46067,2084,1
46071,4003,1
46075,1477,0
46079,0,0
46083,1408,0
46087,4014,1
46091,2199,1
46095,35,0
46099,854,0
46103,4075,1
46107,2862,1
46111,64,0
46115,351,0
46119,4066,1
46123,3466,1
46127,0,0
46131,4,0
46135,3662,1
46139,3829,1
46143,0,0
46147,0,0
46151,2767,1
46155,3967,1
46159,618,0
46163,0,0
46167,2082,1
46171,4002,1
46175,1472,0
46179,0,0
46183,1430,0
46187,4035,1
46191,2215,1
46195,0,0
46199,857,0
46203,4030,1
46207,2869,1
46211,0,0
46215,351,0
46219,4041,1
46223,3495,1
46227,0,0
46231,5,0
46235,3761,1
46239,3830,1
46243,0,0
46247,0,0
46251,2822,1
46255,3958,1
46259,594,0
46263,0,0
46267,2121,1
46271,4015,1
46275,1457,0
46279,0,0
46283,1465,0
46287,3762,1
46291,2222,1
46295,0,0
46299,866,0
46303,4085,1
46307,2882,1
46311,0,0
46315,351,0
46319,4064,1
46323,3519,1
46327,0,0
46331,5,0
46335,3760,1
46339,3834,1
46343,0,0
46347,0,0
46351,2808,1
46355,3995,1
46359,628,0
46363,0,0
46367,2090,1
46371,4019,1
46375,1476,0
46379,0,0
46383,1442,0
46387,3964,1
46391,2245,1
46395,0,0
46399,846,0
46403,4081,1
46407,2918,1
46411,0,0
46415,340,0
46419,4050,1
46423,3518,1
46427,0,0
46431,0,0
46435,3720,1
46439,3865,1
46443,0,0
46447,0,0
46451,2781,1
46455,3967,1
46459,647,0
46463,0,0
46467,2041,1
46471,4018,1
46475,1519,0
46479,0,0
46483,1392,0
46487,4040,1
46491,2285,1
46495,0,0
46499,832,0
46503,4067,1
46507,2963,1
46511,0,0
46515,319,0
46519,4055,1
46523,3542,1
46527,0,0
46531,0,0
46535,3588,1
46539,3866,1
46543,0,0
46547,0,0
46551,2681,1
46555,3969,1
46559,741,0
46563,0,0
46567,1969,0
46571,4007,1
46575,1580,0
46579,0,0
46583,1315,0
46587,4043,1
46591,2309,1
46595,0,0
46599,774,0
46603,4026,1
46607,2955,1
46611,0,0
46615,287,0
46619,4021,1
46623,3551,1
46627,0,0
46631,0,0
46635,3362,1
46639,3848,1
46643,5,0
46647,0,0
46651,2496,1
46655,3983,1
46659,983,0
46663,0,0
46667,1660,0
46671,3990,1
46675,1930,0
46679,0,0
46683,875,0
46687,4012,1
46691,2576,1
46695,0,0
46699,507,0
46703,4023,1
46707,3060,1
46711,0,0
46715,173,0
46719,3752,1
46723,3624,1
46727,0,0
46731,0,0
46735,2986,1
46739,3873,1
46743,217,0
46747,0,0
46751,2256,1
46755,3960,1
46759,1355,0
46763,0,0
46767,1345,0
46771,3926,1
46775,2035,1
46779,0,0
46783,789,0
46787,3983,1
46791,2624,1
46795,0,0
46799,401,0
46803,3438,1
46807,3114,1
46811,0,0
46815,66,0
46819,2828,1
46823,3605,1
46827,121,0
46831,0,0
46835,2283,1
46839,3844,1
46843,769,0
46847,0,0
46851,1752,0
46855,3941,1
46859,1459,0
46863,0,0
46867,1238,0
46871,3941,1
46875,2102,1
46879,0,0
46883,729,0
46887,3916,1
46891,2654,1
46895,0,0
46899,380,0
46903,3294,1
46907,3133,1
46911,20,0
46915,48,0
46919,2738,1
46923,3623,1
46927,164,0
46931,0,0
46935,2211,1
46939,3834,1
46943,827,0
46947,0,0
46951,1659,0
46955,3912,1
46959,1522,0
46963,0,0
46967,1163,0
46971,3921,1
46975,2138,1
46979,0,0
46983,670,0
46987,3769,1
46991,2674,1
46995,0,0
46999,317,0
47003,3180,1
47007,3173,1
47011,13,0
47015,39,0
47019,2681,1
47023,3631,1
47027,252,0
47031,0,0
47035,2193,1
47039,3834,1
47043,857,0
47047,0,0
47051,1644,0
47055,3927,1
47059,1559,0
47063,0,0
47067,1155,0
47071,3912,1
47075,2155,1
47079,0,0
47083,656,0
47087,3417,1
47091,2681,1
47095,0,0
47099,318,0
47103,3161,1
47107,3159,1
47111,0,0
47115,51,0
47119,2929,1
47123,3637,1
47127,0,0
47131,0,0
47135,2810,1
47139,3869,1
47143,333,0
47147,0,0
47151,2221,1
47155,3976,1
47159,1185,0
47163,0,0
47167,1603,0
47171,3996,1
47175,1918,0
47179,0,0
47183,983,0
47187,3716,1
47191,2571,1
47195,0,0
47199,540,0
47203,4045,1
47207,3137,1
47211,0,0
47215,171,0
47219,3686,1
47223,3700,1
47227,0,0
47231,0,0
47235,2873,1
47239,3892,1
47243,376,0
47247,0,0
47251,2173,1
47255,3965,1
47259,1228,0
47263,0,0
47267,1567,0
47271,4018,1
47275,1976,1
47279,0,0
47283,937,0
47287,4050,1
47291,2653,1
47295,55,0
47299,468,0
47303,4008,1
47307,3220,1
47311,0,0
47315,107,0
47319,3268,1
47323,3717,1
47327,0,0
47331,0,0
