#device=ESP32+AD8232
#cols=t_ms,adc,lead_off
510674,41,0
510678,14,0
510682,271,0
510686,352,0
510690,130,0
510694,11,0
510698,206,0
510702,343,0
510706,134,0
510710,0,0
510714,89,0
510718,295,0
510722,239,0
510726,0,0
510730,0,0
510734,161,0
510738,49,0
510742,0,0
510746,0,0
510750,92,0
510754,68,0
510758,0,0
510762,0,0
510766,73,0
510770,71,0
510774,0,0
510778,0,0
510782,39,0
510786,88,0
510790,0,0
510794,0,0
510798,80,0
510802,237,0
510806,70,0
510810,0,0
510814,156,0
510818,358,0
510822,211,0
510826,0,0
510830,0,0
510834,115,0
510838,39,0
510842,0,0
510846,0,0
510850,142,0
510854,129,0
510858,0,0
510862,0,0
510866,67,0
510870,133,0
510874,0,0
510878,0,0
510882,112,0
510886,185,0
510890,0,0
510894,0,0
510898,35,0
510902,127,0
510906,0,0
510910,0,0
510914,69,0
510918,183,0
510922,0,0
510926,0,0
510930,0,0
510934,147,0
510938,21,0
510942,0,0
510946,0,0
510950,138,0
510954,99,0
510958,0,0
510962,0,0
510966,56,0
510970,21,0
510974,0,0
510978,0,0
510982,77,0
510986,161,0
510990,0,0
510994,0,0
510998,44,0
511002,151,0
511006,0,0
511010,0,0
511014,0,0
511018,0,0
511022,0,0
511026,0,0
511030,0,0
511034,0,0
511038,0,0
511042,0,0
511046,0,0
511050,0,0
511054,0,0
511058,0,0
511062,0,0
511066,14,0
511070,31,0
511074,0,0
511078,0,0
511082,72,0
511086,149,0
511090,0,0
511094,0,0
511098,72,0
511102,226,0
511106,39,0
511110,0,0
511114,88,0
511118,363,0
511122,260,0
511126,73,0
511130,327,0
511134,702,0
511138,571,0
511142,190,0
511146,186,0
511150,388,0
511154,319,0
511158,11,0
511162,0,0
511166,214,0
511170,225,0
511174,0,0
511178,0,0
511182,5,0
511186,2,0
511190,0,0
511194,0,0
511198,0,0
511202,0,0
511206,0,0
511210,0,0
511214,0,0
511218,62,0
511222,0,0
511226,0,0
511230,0,0
511234,127,0
511238,31,0
511242,0,0
511246,0,0
511250,196,0
511254,185,0
511258,0,0
511262,0,0
511266,296,0
511270,411,0
511274,193,0
511278,194,0
511282,539,0
511286,726,0
511290,545,0
511294,467,0
511298,680,0
511302,752,0
511306,452,0
511310,134,0
511314,257,0
511318,414,0
511322,168,0
511326,0,0
511330,0,0
511334,177,0
511338,38,0
511342,0,0
511346,0,0
511350,134,0
511354,97,0
511358,0,0
511362,0,0
511366,145,0
511370,180,0
511374,0,0
511378,0,0
511382,168,0
511386,218,0
511390,0,0
511394,0,0
511398,63,0
511402,140,0
511406,0,0
511410,0,0
511414,0,0
511418,136,0
511422,0,0
511426,0,0
511430,2,0
511434,126,0
511438,39,0
511442,0,0
511446,0,0
511450,143,0
511454,165,0
511458,9,0
511462,0,0
511466,266,0
511470,371,0
511474,106,0
511478,76,0
511482,400,0
511486,598,0
511490,446,0
511494,285,0
511498,441,0
511502,528,0
511506,271,0
511510,5,0
511514,129,0
511518,264,0
511522,79,0
511526,0,0
511530,0,0
511534,94,0
511538,0,0
511542,0,0
511546,0,0
511550,88,0
511554,23,0
511558,0,0
511562,0,0
511566,80,0
511570,105,0
511574,0,0
511578,0,0
511582,30,0
511586,101,0
511590,0,0
511594,0,0
511598,0,0
511602,105,0
511606,0,0
511610,0,0
511614,0,0
511618,129,0
511622,0,0
511626,0,0
511630,0,0
511634,124,0
511638,20,0
511642,0,0
511646,0,0
511650,130,0
511654,95,0
511658,0,0
511662,0,0
511666,123,0
511670,168,0
511674,0,0
511678,0,0
511682,137,0
511686,243,0
511690,56,0
511694,0,0
511698,122,0
511702,275,0
511706,127,0
511710,0,0
511714,87,0
511718,279,0
511722,119,0
511726,0,0
511730,15,0
511734,233,0
511738,133,0
511742,0,0
511746,0,0
511750,143,0
511754,95,0
511758,0,0
511762,0,0
511766,124,0
511770,140,0
511774,0,0
511778,0,0
511782,88,0
511786,147,0
511790,0,0
511794,0,0
511798,41,0
511802,150,0
511806,0,0
511810,0,0
511814,2,0
511818,143,0
511822,0,0
511826,0,0
511830,0,0
511834,122,0
511838,40,0
511842,0,0
511846,0,0
511850,115,0
511854,88,0
511858,0,0
511862,0,0
511866,97,0
511870,127,0
511874,0,0
511878,0,0
511882,77,0
511886,118,0
511890,0,0
511894,0,0
511898,53,0
511902,142,0
511906,0,0
511910,0,0
511914,18,0
511918,139,0
511922,0,0
511926,0,0
511930,0,0
511934,122,0
511938,30,0
511942,0,0
511946,0,0
511950,90,0
511954,95,0
511958,0,0
511962,0,0
511966,80,0
511970,106,0
511974,0,0
511978,0,0
511982,54,0
511986,122,0
511990,0,0
511994,0,0
511998,18,0
512002,113,0
512006,0,0
512010,0,0
512014,0,0
512018,118,0
512022,0,0
512026,0,0
512030,0,0
512034,99,0
512038,4,0
512042,0,0
512046,0,0
512050,78,0
512054,32,0
512058,0,0
512062,0,0
512066,66,0
512070,88,0
512074,0,0
512078,0,0
512082,50,0
512086,99,0
512090,0,0
512094,0,0
512098,10,0
512102,112,0
512106,0,0
512110,0,0
512114,3,0
512118,121,0
512122,0,0
512126,0,0
512130,0,0
512134,108,0
512138,4,0
512142,0,0
512146,0,0
512150,94,0
512154,49,0
512158,0,0
512162,0,0
512166,68,0
512170,104,0
512174,0,0
512178,0,0
512182,37,0
512186,87,0
512190,0,0
512194,0,0
512198,5,0
512202,97,0
512206,0,0
512210,0,0
512214,0,0
512218,135,0
512222,0,0
512226,0,0
512230,0,0
512234,100,0
512238,12,0
512242,0,0
512246,0,0
512250,99,0
512254,47,0
512258,0,0
512262,0,0
512266,78,0
512270,72,0
512274,0,0
512278,0,0
512282,51,0
512286,80,0
512290,0,0
512294,0,0
512298,10,0
512302,82,0
512306,0,0
512310,0,0
512314,0,0
512318,88,0
512322,0,0
512326,0,0
512330,0,0
512334,83,0
512338,7,0
512342,0,0
512346,0,0
512350,82,0
512354,37,0
512358,0,0
512362,0,0
512366,71,0
512370,60,0
512374,0,0
512378,0,0
512382,45,0
512386,71,0
512390,0,0
512394,0,0
512398,24,0
512402,58,0
512406,0,0
512410,0,0
512414,0,0
512418,65,0
512422,0,0
512426,0,0
512430,0,0
512434,76,0
512438,0,0
512442,0,0
512446,0,0
512450,66,0
512454,51,0
512458,0,0
512462,0,0
512466,54,0
512470,85,0
512474,0,0
512478,0,0
512482,42,0
512486,101,0
512490,0,0
512494,0,0
512498,20,0
512502,88,0
512506,0,0
512510,0,0
512514,0,0
512518,84,0
512522,0,0
512526,0,0
512530,0,0
512534,72,0
512538,0,0
512542,0,0
512546,0,0
512550,69,0
512554,31,0
512558,0,0
512562,0,0
512566,56,0
512570,81,0
512574,0,0
512578,0,0
512582,54,0
512586,109,0
512590,0,0
512594,0,0
512598,9,0
512602,113,0
512606,0,0
512610,0,0
512614,0,0
512618,128,0
512622,0,0
512626,0,0
512630,0,0
512634,116,0
512638,3,0
512642,0,0
512646,0,0
512650,85,0
512654,51,0
512658,0,0
512662,0,0
512666,52,0
512670,110,0
512674,0,0
512678,0,0
512682,20,0
512686,51,0
512690,0,0
512694,0,0
512698,0,0
512702,23,0
512706,0,0
512710,0,0
512714,0,0
512718,27,0
512722,0,0
512726,0,0
512730,0,0
512734,55,0
512738,0,0
512742,0,0
512746,0,0
512750,68,0
512754,9,0
512758,0,0
512762,0,0
512766,65,0
512770,49,0
512774,0,0
512778,0,0
512782,37,0
512786,44,0
512790,0,0
512794,0,0
512798,19,0
512802,125,0
512806,0,0
512810,0,0
512814,0,0
512818,140,0
512822,2,0
512826,0,0
512830,0,0
512834,147,0
512838,64,0
512842,0,0
512846,0,0
512850,111,0
512854,74,0
512858,0,0
512862,0,0
512866,73,0
512870,77,0
512874,0,0
512878,0,0
512882,57,0
512886,99,0
512890,0,0
512894,0,0
512898,22,0
512902,94,0
512906,0,0
512910,0,0
512914,0,0
512918,77,0
512922,0,0
512926,0,0
512930,0,0
512934,73,0
512938,1,0
512942,0,0
512946,0,0
512950,80,0
512954,74,0
512958,0,0
512962,0,0
512966,67,0
512970,68,0
512974,0,0
512978,15,0
512982,37,0
512986,61,0
512990,0,0
512994,0,0
512998,2,0
513002,69,0
513006,0,0
513010,0,0
513014,0,0
513018,95,0
513022,0,0
513026,0,0
513030,0,0
513034,109,0
513038,9,0
513042,0,0
513046,0,0
513050,79,0
513054,69,0
513058,0,0
513062,0,0
513066,61,0
513070,119,0
513074,0,0
513078,0,0
513082,47,0
513086,127,0
513090,0,0
513094,0,0
513098,5,0
513102,58,0
513106,0,0
513110,0,0
513114,0,0
513118,46,0
513122,0,0
513126,0,0
513130,0,0
513134,45,0
513138,0,0
513142,0,0
513146,0,0
513150,37,0
513154,2,0
513158,0,0
513162,0,0
513166,62,0
513170,37,0
513174,0,0
513178,0,0
513182,21,0
513186,91,0
513190,0,0
513194,0,0
513198,16,0
513202,149,0
513206,0,0
513210,0,0
513214,0,0
513218,84,0
513222,0,0
513226,0,0
513230,0,0
513234,61,0
513238,0,0
513242,0,0
513246,0,0
513250,48,0
513254,5,0
513258,0,0
513262,0,0
513266,59,0
513270,76,0
513274,0,0
513278,0,0
513282,47,0
513286,114,0
513290,0,0
513294,0,0
513298,23,0
513302,116,0
513306,0,0
513310,0,0
513314,1,0
513318,154,0
513322,63,0
513326,0,0
513330,0,0
513334,153,0
513338,96,0
513342,0,0
513346,0,0
513350,74,0
513354,0,0
513358,0,0
513362,0,0
513366,27,0
513370,28,0
513374,0,0
513378,0,0
513382,22,0
513386,14,0
513390,0,0
513394,0,0
513398,0,0
513402,30,0
513406,0,0
513410,0,0
513414,0,0
513418,48,0
513422,0,0
513426,0,0
513430,0,0
513434,72,0
513438,0,0
513442,0,0
513446,0,0
513450,71,0
513454,41,0
513458,0,0
513462,0,0
513466,50,0
513470,50,0
513474,0,0
513478,0,0
513482,4,0
513486,21,0
513490,0,0
513494,0,0
513498,0,0
513502,10,0
513506,0,0
513510,0,0
513514,0,0
513518,0,0
513522,0,0
513526,0,0
513530,0,0
513534,0,0
513538,0,0
513542,0,0
513546,0,0
513550,0,0
513554,0,0
513558,0,0
513562,0,0
513566,0,0
513570,0,0
513574,0,0
513578,0,0
513582,0,0
513586,0,0
513590,0,0
513594,0,0
513598,0,0
513602,30,0
513606,0,0
513610,0,0
513614,0,0
513618,59,0
513622,0,0
513626,0,0
513630,7,0
513634,55,0
513638,0,0
513642,0,0
513646,0,0
513650,67,0
513654,4,0
513658,0,0
513662,0,0
513666,66,0
513670,46,0
513674,0,0
513678,0,0
513682,124,0
513686,255,0
513690,100,0
513694,6,0
513698,186,0
513702,374,0
513706,192,0
513710,0,0
513714,65,0
513718,161,0
513722,0,0
513726,0,0
513730,0,0
513734,0,0
513738,0,0
513742,0,0
513746,0,0
513750,37,0
513754,40,0
513758,0,0
513762,0,0
513766,286,0
513770,363,0
513774,142,0
513778,172,0
513782,431,0
513786,534,0
513790,324,0
513794,195,0
513798,346,0
513802,469,0
513806,271,0
513810,26,0
513814,160,0
513818,333,0
513822,178,0
513826,0,0
513830,30,0
513834,221,0
513838,133,0
513842,0,0
513846,0,0
513850,102,0
513854,77,0
513858,0,0
513862,0,0
513866,72,0
513870,75,0
513874,0,0
513878,0,0
513882,100,0
513886,153,0
513890,0,0
513894,0,0
513898,59,0
513902,154,0
513906,1,0
513910,0,0
513914,24,0
513918,159,0
513922,38,0
513926,0,0
513930,0,0
513934,77,0
513938,13,0
513942,0,0
513946,0,0
513950,95,0
513954,69,0
513958,0,0
513962,0,0
513966,57,0
513970,80,0
513974,0,0
513978,0,0
513982,51,0
513986,96,0
513990,0,0
513994,0,0
513998,26,0
514002,113,0
514006,0,0
514010,0,0
514014,10,0
514018,123,0
514022,0,0
514026,0,0
514030,0,0
514034,97,0
514038,1,0
514042,0,0
514046,0,0
514050,64,0
514054,23,0
514058,0,0
514062,0,0
514066,44,0
514070,67,0
514074,0,0
514078,0,0
514082,20,0
514086,89,0
514090,0,0
514094,0,0
514098,0,0
514102,41,0
514106,0,0
514110,0,0
514114,0,0
514118,29,0
514122,0,0
514126,0,0
514130,0,0
514134,0,0
514138,0,0
514142,0,0
514146,0,0
514150,0,0
514154,0,0
514158,0,0
514162,0,0
514166,0,0
514170,0,0
514174,0,0
514178,0,0
514182,0,0
514186,26,0
514190,0,0
514194,0,0
514198,0,0
514202,28,0
514206,0,0
514210,0,0
514214,0,0
514218,38,0
514222,0,0
514226,0,0
514230,0,0
514234,68,0
514238,0,0
514242,0,0
514246,0,0
514250,101,0
514254,11,0
514258,0,0
514262,0,0
514266,74,0
514270,87,0
514274,0,0
514278,0,0
514282,77,0
514286,126,0
514290,0,0
514294,0,0
514298,55,0
514302,151,0
514306,0,0
514310,0,0
514314,12,0
514318,152,0
514322,23,0
514326,0,0
514330,0,0
514334,135,0
514338,44,0
514342,0,0
514346,0,0
514350,137,0
514354,114,0
514358,0,0
514362,0,0
514366,136,0
514370,157,0
514374,0,0
514378,0,0
514382,101,0
514386,152,0
514390,0,0
514394,0,0
514398,67,0
514402,148,0
514406,23,0
514410,0,0
514414,28,0
514418,188,0
514422,70,0
514426,0,0
514430,8,0
514434,194,0
514438,106,0
514442,0,0
514446,13,0
514450,177,0
514454,131,0
514458,0,0
514462,0,0
514466,130,0
514470,153,0
514474,0,0
514478,0,0
514482,92,0
514486,154,0
514490,0,0
514494,0,0
514498,35,0
514502,116,0
514506,0,0
514510,0,0
514514,1,0
514518,101,0
514522,0,0
514526,0,0
514530,0,0
514534,70,0
514538,0,0
514542,0,0
514546,0,0
514550,88,0
514554,82,0
514558,0,0
514562,0,0
514566,50,0
514570,54,0
514574,0,0
514578,0,0
514582,61,0
514586,116,0
514590,0,0
514594,0,0
514598,62,0
514602,149,0
514606,0,0
514610,0,0
514614,24,0
514618,139,0
514622,0,0
514626,0,0
514630,0,0
514634,101,0
514638,0,0
514642,0,0
514646,0,0
514650,99,0
514654,50,0
514658,0,0
514662,0,0
514666,45,0
514670,50,0
514674,0,0
514678,0,0
514682,8,0
514686,45,0
514690,0,0
514694,0,0
514698,0,0
514702,39,0
514706,0,0
514710,0,0
514714,0,0
514718,39,0
514722,0,0
514726,0,0
514730,0,0
514734,94,0
514738,0,0
514742,0,0
514746,0,0
514750,0,0
514754,31,0
514758,0,0
514762,0,0
514766,32,0
514770,1,0
514774,0,0
514778,0,0
514782,24,0
514786,63,0
514790,0,0
514794,0,0
514798,57,0
514802,179,0
514806,113,0
514810,18,0
514814,283,0
514818,559,0
514822,459,0
514826,225,0
514830,322,0
514834,518,0
514838,400,0
514842,117,0
514846,133,0
514850,355,0
514854,311,0
514858,35,0
514862,34,0
514866,245,0
514870,252,0
514874,0,0
514878,0,0
514882,94,0
514886,121,0
514890,0,0
514894,0,0
514898,45,0
514902,132,0
514906,0,0
514910,0,0
514914,31,0
514918,195,0
514922,82,0
514926,0,0
514930,53,0
514934,239,0
514938,199,0
514942,0,0
514946,49,0
514950,257,0
514954,258,0
514958,0,0
514962,21,0
514966,216,0
514970,242,0
514974,0,0
514978,0,0
514982,81,0
514986,78,0
514990,0,0
514994,0,0
514998,0,0
515002,23,0
515006,0,0
515010,0,0
515014,0,0
515018,0,0
515022,0,0
515026,0,0
515030,0,0
515034,0,0
515038,0,0
515042,0,0
515046,0,0
515050,0,0
515054,0,0
515058,0,0
515062,0,0
515066,0,0
515070,0,0
515074,0,0
515078,0,0
515082,0,0
515086,0,0
515090,0,0
515094,0,0
515098,0,0
515102,0,0
515106,0,0
515110,0,0
515114,0,0
515118,184,0
515122,0,0
515126,0,0
515130,0,0
515134,105,0
515138,0,0
515142,0,0
515146,0,0
515150,128,0
515154,107,0
515158,0,0
515162,0,0
515166,194,0
515170,249,0
515174,8,0
515178,0,0
515182,200,0
515186,282,0
515190,106,0
515194,6,0
515198,197,0
515202,321,0
515206,137,0
515210,0,0
515214,86,0
515218,248,0
515222,80,0
515226,0,0
515230,23,0
515234,200,0
515238,100,0
515242,0,0
515246,0,0
515250,168,0
515254,115,0
515258,0,0
515262,0,0
515266,175,0
515270,229,0
515274,0,0
515278,0,0
515282,113,0
515286,163,0
515290,0,0
515294,0,0
515298,62,0
515302,163,0
515306,1,0
515310,0,0
515314,12,0
515318,157,0
515322,26,0
515326,0,0
515330,0,0
515334,139,0
515338,65,0
515342,0,0
515346,0,0
515350,137,0
515354,144,0
515358,0,0
515362,4,0
515366,140,0
515370,120,0
515374,0,0
515378,0,0
515382,74,0
515386,118,0
515390,0,0
515394,0,0
515398,35,0
515402,104,0
515406,0,0
515410,0,0
515414,11,0
515418,109,0
515422,0,0
515426,0,0
515430,0,0
515434,109,0
515438,0,0
515442,0,0
515446,0,0
515450,65,0
515454,11,0
515458,0,0
515462,0,0
515466,0,0
515470,0,0
515474,0,0
515478,0,0
515482,0,0
515486,6,0
515490,0,0
515494,0,0
515498,0,0
515502,38,0
515506,0,0
515510,0,0
515514,0,0
515518,40,0
515522,0,0
515526,0,0
515530,0,0
515534,21,0
515538,0,0
515542,0,0
515546,0,0
515550,142,0
515554,122,0
515558,0,0
515562,0,0
515566,167,0
515570,201,0
515574,0,0
515578,0,0
515582,66,0
515586,84,0
515590,0,0
515594,0,0
515598,20,0
515602,119,0
515606,0,0
515610,0,0
515614,51,0
515618,216,0
515622,92,0
515626,0,0
515630,61,0
515634,270,0
515638,149,0
515642,0,0
515646,0,0
515650,197,0
515654,147,0
515658,0,0
515662,0,0
515666,166,0
515670,152,0
515674,0,0
515678,0,0
515682,78,0
515686,121,0
515690,0,0
515694,0,0
515698,15,0
515702,106,0
515706,0,0
515710,0,0
515714,6,0
515718,127,0
515722,0,0
515726,0,0
515730,0,0
515734,109,0
515738,1,0
515742,0,0
515746,0,0
515750,98,0
515754,40,0
515758,0,0
515762,0,0
515766,73,0
515770,59,0
515774,0,0
515778,0,0
515782,43,0
515786,62,0
515790,0,0
515794,0,0
515798,7,0
515802,27,0
515806,0,0
515810,0,0
515814,2,0
515818,45,0
515822,0,0
515826,0,0
515830,0,0
515834,46,0
515838,0,0
515842,0,0
515846,0,0
515850,40,0
515854,0,0
515858,0,0
515862,0,0
515866,62,0
515870,55,0
515874,0,0
515878,0,0
515882,36,0
515886,82,0
515890,0,0
515894,0,0
515898,23,0
515902,97,0
515906,0,0
515910,0,0
515914,7,0
515918,115,0
515922,0,0
515926,0,0
515930,0,0
515934,90,0
515938,0,0
515942,0,0
515946,0,0
515950,73,0
515954,23,0
515958,0,0
515962,0,0
515966,56,0
515970,47,0
515974,0,0
515978,0,0
515982,3,0
515986,0,0
515990,0,0
515994,0,0
515998,0,0
516002,0,0
516006,0,0
516010,0,0
516014,0,0
516018,0,0
516022,0,0
516026,0,0
516030,0,0
516034,0,0
516038,0,0
516042,0,0
516046,0,0
516050,25,0
516054,0,0
516058,0,0
516062,0,0
516066,90,0
516070,148,0
516074,0,0
516078,0,0
516082,100,0
516086,136,0
516090,0,0
516094,0,0
516098,24,0
516102,110,0
516106,0,0
516110,0,0
516114,2,0
516118,101,0
516122,0,0
516126,0,0
516130,2,0
516134,126,0
516138,4,0
516142,0,0
516146,0,0
516150,138,0
516154,45,0
516158,0,0
516162,0,0
516166,131,0
516170,96,0
516174,0,0
516178,0,0
516182,111,0
516186,121,0
516190,0,0
516194,0,0
516198,59,0
516202,99,0
516206,0,0
516210,0,0
516214,19,0
516218,98,0
516222,0,0
516226,0,0
516230,0,0
516234,107,0
516238,0,0
516242,0,0
516246,0,0
516250,89,0
516254,1,0
516258,0,0
516262,0,0
516266,118,0
516270,87,0
516274,0,0
516278,0,0
516282,118,0
516286,129,0
516290,0,0
516294,0,0
516298,83,0
516302,166,0
516306,0,0
516310,0,0
516314,77,0
516318,240,0
516322,46,0
516326,0,0
516330,70,0
516334,240,0
516338,52,0
516342,0,0
516346,6,0
516350,180,0
516354,125,0
516358,0,0
516362,0,0
516366,135,0
516370,179,0
516374,0,0
516378,0,0
516382,29,0
516386,12,0
516390,0,0
516394,0,0
516398,3,0
516402,63,0
516406,0,0
516410,0,0
516414,1,0
516418,92,0
516422,0,0
516426,0,0
516430,25,0
516434,199,0
516438,29,0
516442,0,0
516446,0,0
516450,224,0
516454,141,0
516458,0,0
516462,0,0
516466,90,0
516470,55,0
516474,0,0
516478,0,0
516482,80,0
516486,103,0
516490,0,0
516494,0,0
516498,34,0
516502,100,0
516506,0,0
516510,0,0
516514,0,0
516518,105,0
516522,0,0
516526,0,0
516530,0,0
516534,103,0
516538,0,0
516542,0,0
516546,0,0
516550,0,0
516554,0,0
516558,0,0
516562,0,0
516566,57,0
516570,7,0
516574,0,0
516578,0,0
516582,38,0
516586,69,0
516590,0,0
516594,0,0
516598,71,0
516602,131,0
516606,0,0
516610,0,0
516614,43,0
516618,162,0
516622,0,0
516626,0,0
516630,0,0
516634,60,0
516638,0,0
516642,0,0
516646,0,0
516650,0,0
516654,0,0
516658,0,0
516662,0,0
516666,39,0
516670,135,0
516674,0,0
516678,0,0
516682,67,0
516686,79,0
516690,0,0
516694,0,0
516698,19,0
516702,51,0
516706,0,0
516710,0,0
516714,2,0
516718,100,0
516722,0,0
516726,0,0
516730,7,0
516734,129,0
516738,0,0
516742,0,0
516746,0,0
516750,111,0
516754,28,0
516758,0,0
516762,0,0
516766,140,0
516770,172,0
516774,17,0
516778,0,0
516782,145,0
516786,205,0
516790,0,0
516794,0,0
516798,209,0
516802,350,0
516806,126,0
516810,13,0
516814,228,0
516818,451,0
516822,329,0
516826,127,0
516830,293,0
516834,494,0
516838,393,0
516842,204,0
516846,305,0
516850,550,0
516854,480,0
516858,230,0
516862,260,0
516866,472,0
516870,502,0
516874,189,0
516878,137,0
516882,348,0
516886,423,0
516890,163,0
516894,80,0
516898,272,0
516902,415,0
516906,202,0
516910,35,0
516914,213,0
516918,379,0
516922,189,0
516926,0,0
516930,85,0
516934,285,0
516938,127,0
516942,0,0
516946,0,0
516950,63,0
516954,0,0
516958,0,0
516962,0,0
516966,0,0
516970,0,0
516974,0,0
516978,0,0
516982,0,0
516986,0,0
516990,0,0
516994,0,0
516998,0,0
517002,0,0
517006,0,0
517010,0,0
517014,3,0
517018,113,0
517022,0,0
517026,0,0
517030,0,0
517034,119,0
517038,4,0
517042,0,0
517046,0,0
517050,155,0
517054,116,0
517058,0,0
517062,0,0
517066,251,0
517070,284,0
517074,21,0
517078,30,0
517082,304,0
517086,387,0
517090,149,0
517094,116,0
517098,303,0
517102,422,0
517106,246,0
517110,133,0
517114,320,0
517118,457,0
517122,274,0
517126,93,0
517130,184,0
517134,375,0
517138,239,0
517142,0,0
517146,7,0
517150,204,0
517154,137,0
517158,0,0
517162,0,0
517166,103,0
517170,108,0
517174,0,0
517178,0,0
517182,79,0
517186,135,0
517190,0,0
517194,0,0
517198,42,0
517202,101,0
517206,0,0
517210,0,0
517214,0,0
517218,71,0
517222,0,0
517226,0,0
517230,0,0
517234,96,0
517238,0,0
517242,0,0
517246,0,0
517250,111,0
517254,41,0
517258,0,0
517262,0,0
517266,93,0
517270,106,0
517274,0,0
517278,0,0
517282,91,0
517286,155,0
517290,0,0
517294,0,0
517298,26,0
517302,112,0
517306,0,0
517310,0,0
517314,12,0
517318,125,0
517322,0,0
517326,0,0
517330,0,0
517334,118,0
517338,0,0
517342,0,0
517346,0,0
517350,85,0
517354,0,0
517358,0,0
517362,0,0
517366,89,0
517370,50,0
517374,0,0
517378,0,0
517382,66,0
517386,107,0
517390,0,0
517394,0,0
517398,16,0
517402,38,0
517406,0,0
517410,0,0
517414,0,0
517418,64,0
517422,0,0
517426,0,0
517430,0,0
517434,82,0
517438,0,0
517442,0,0
517446,0,0
517450,73,0
517454,0,0
517458,0,0
517462,0,0
517466,57,0
517470,10,0
517474,0,0
517478,0,0
517482,45,0
517486,50,0
517490,0,0
517494,0,0
517498,28,0
517502,77,0
517506,0,0
517510,0,0
517514,13,0
517518,108,0
517522,0,0
517526,0,0
517530,0,0
517534,94,0
517538,0,0
517542,0,0
517546,0,0
517550,82,0
517554,19,0
517558,0,0
517562,0,0
517566,77,0
517570,66,0
517574,0,0
517578,0,0
517582,68,0
517586,80,0
517590,0,0
517594,0,0
517598,41,0
517602,76,0
517606,0,0
517610,0,0
517614,18,0
517618,103,0
517622,0,0
517626,0,0
517630,0,0
517634,97,0
517638,0,0
517642,0,0
517646,0,0
517650,89,0
517654,11,0
517658,0,0
517662,0,0
517666,60,0
517670,42,0
517674,0,0
517678,0,0
517682,50,0
517686,80,0
517690,0,0
517694,0,0
517698,49,0
517702,101,0
517706,0,0
517710,0,0
517714,10,0
517718,110,0
517722,0,0
517726,0,0
517730,10,0
517734,113,0
517738,0,0
517742,0,0
517746,0,0
517750,93,0
517754,1,0
517758,0,0
517762,0,0
517766,53,0
517770,19,0
517774,0,0
517778,0,0
517782,3,0
517786,9,0
517790,0,0
517794,0,0
517798,0,0
517802,0,0
517806,0,0
517810,0,0
517814,0,0
517818,0,0
517822,0,0
517826,0,0
517830,0,0
517834,0,0
517838,0,0
517842,0,0
517846,0,0
517850,23,0
517854,0,0
517858,0,0
517862,0,0
517866,282,0
517870,292,0
517874,15,0
517878,9,0
517882,243,0
517886,292,0
517890,45,0
517894,0,0
517898,162,0
517902,210,0
517906,0,0
517910,0,0
517914,0,0
517918,79,0
517922,0,0
517926,0,0
517930,0,0
517934,103,0
517938,0,0
517942,0,0
517946,0,0
517950,122,0
517954,32,0
517958,0,0
517962,0,0
517966,134,0
517970,120,0
517974,0,0
517978,0,0
517982,125,0
517986,145,0
517990,0,0
517994,0,0
517998,60,0
518002,36,0
518006,0,0
518010,0,0
518014,12,0
518018,78,0
518022,0,0
518026,0,0
518030,0,0
518034,85,0
518038,0,0
518042,0,0
518046,0,0
518050,80,0
518054,26,0
518058,0,0
518062,0,0
518066,98,0
518070,83,0
518074,0,0
518078,0,0
518082,99,0
518086,151,0
518090,0,0
518094,0,0
518098,124,0
518102,218,0
518106,36,0
518110,0,0
518114,187,0
518118,348,0
518122,160,0
518126,0,0
518130,84,0
518134,239,0
518138,85,0
518142,0,0
518146,0,0
518150,145,0
518154,66,0
518158,0,0
518162,0,0
518166,81,0
518170,63,0
518174,0,0
518178,0,0
518182,36,0
518186,77,0
518190,0,0
518194,0,0
518198,13,0
518202,91,0
518206,0,0
518210,0,0
518214,22,0
518218,120,0
518222,0,0
518226,0,0
518230,2,0
518234,115,0
518238,0,0
518242,0,0
518246,0,0
518250,108,0
518254,12,0
518258,0,0
518262,0,0
518266,85,0
518270,47,0
518274,0,0
518278,0,0
518282,56,0
518286,65,0
518290,0,0
518294,0,0
518298,25,0
518302,83,0
518306,0,0
518310,0,0
518314,5,0
518318,115,0
518322,0,0
518326,0,0
518330,0,0
518334,113,0
518338,0,0
518342,0,0
518346,0,0
518350,101,0
518354,0,0
518358,0,0
518362,0,0
518366,55,0
518370,0,0
518374,0,0
518378,0,0
518382,0,0
518386,0,0
518390,0,0
518394,0,0
518398,0,0
518402,9,0
518406,0,0
518410,0,0
518414,0,0
518418,59,0
518422,0,0
518426,0,0
518430,0,0
518434,91,0
518438,0,0
518442,0,0
518446,0,0
518450,91,0
518454,0,0
518458,0,0
518462,0,0
518466,50,0
518470,7,0
518474,0,0
518478,0,0
518482,62,0
518486,82,0
518490,0,0
518494,0,0
518498,54,0
518502,94,0
518506,0,0
518510,0,0
518514,45,0
518518,158,0
518522,4,0
518526,0,0
518530,29,0
518534,197,0
518538,84,0
518542,0,0
518546,27,0
518550,193,0
518554,120,0
518558,0,0
518562,0,0
518566,96,0
518570,92,0
518574,0,0
518578,0,0
518582,66,0
518586,112,0
518590,0,0
518594,0,0
518598,39,0
518602,96,0
518606,0,0
518610,0,0
518614,14,0
518618,87,0
518622,0,0
518626,0,0
518630,0,0
518634,74,0
518638,0,0
518642,0,0
518646,0,0
518650,78,0
518654,0,0
518658,0,0
518662,0,0
518666,57,0
518670,22,0
518674,0,0
518678,0,0
518682,34,0
518686,47,0
518690,0,0
518694,0,0
518698,4,0
518702,62,0
518706,0,0
518710,0,0
518714,0,0
518718,95,0
518722,0,0
518726,0,0
518730,0,0
518734,111,0
518738,0,0
518742,0,0
518746,0,0
518750,109,0
518754,0,0
518758,0,0
518762,0,0
518766,75,0
518770,32,0
518774,0,0
518778,0,0
518782,62,0
518786,81,0
518790,0,0
518794,0,0
518798,23,0
518802,87,0
518806,0,0
518810,0,0
518814,6,0
518818,100,0
518822,0,0
518826,0,0
518830,0,0
518834,110,0
518838,0,0
518842,0,0
518846,0,0
518850,95,0
518854,14,0
518858,0,0
518862,0,0
518866,88,0
518870,39,0
518874,0,0
518878,0,0
518882,65,0
518886,75,0
518890,0,0
518894,0,0
518898,43,0
518902,83,0
518906,0,0
518910,0,0
518914,11,0
518918,90,0
518922,0,0
518926,0,0
518930,0,0
518934,86,0
518938,0,0
518942,0,0
518946,0,0
518950,88,0
518954,7,0
518958,0,0
518962,0,0
518966,83,0
518970,57,0
518974,0,0
518978,0,0
518982,62,0
518986,84,0
518990,0,0
518994,0,0
518998,50,0
519002,104,0
519006,0,0
519010,0,0
519014,32,0
519018,109,0
519022,0,0
519026,0,0
519030,0,0
519034,112,0
519038,0,0
519042,0,0
519046,0,0
519050,111,0
519054,44,0
519058,0,0
519062,0,0
519066,102,0
519070,87,0
519074,0,0
519078,0,0
519082,75,0
519086,103,0
519090,0,0
519094,0,0
519098,37,0
519102,84,0
519106,0,0
519110,0,0
519114,9,0
519118,87,0
519122,0,0
519126,0,0
519130,0,0
519134,67,0
519138,0,0
519142,0,0
519146,0,0
519150,64,0
519154,0,0
519158,0,0
519162,0,0
519166,0,0
519170,0,0
519174,0,0
519178,0,0
519182,0,0
519186,0,0
519190,0,0
519194,0,0
519198,0,0
519202,0,0
519206,0,0
519210,0,0
519214,0,0
519218,35,0
519222,0,0
519226,0,0
519230,0,0
519234,80,0
519238,0,0
519242,0,0
519246,0,0
519250,107,0
519254,16,0
519258,0,0
519262,0,0
519266,141,0
519270,151,0
519274,0,0
519278,0,0
519282,141,0
519286,163,0
519290,0,0
519294,0,0
519298,42,0
519302,98,0
519306,0,0
519310,0,0
519314,17,0
519318,110,0
519322,0,0
519326,0,0
519330,0,0
519334,101,0
519338,0,0
519342,0,0
519346,0,0
519350,58,0
519354,0,0
519358,0,0
519362,0,0
519366,39,0
519370,0,0
519374,0,0
519378,0,0
519382,30,0
519386,7,0
519390,0,0
519394,0,0
519398,27,0
519402,49,0
519406,0,0
519410,0,0
519414,10,0
519418,169,0
519422,3,0
519426,0,0
519430,3,0
519434,124,0
519438,0,0
519442,0,0
519446,0,0
519450,90,0
519454,17,0
519458,0,0
519462,0,0
519466,93,0
519470,62,0
519474,0,0
519478,0,0
519482,88,0
519486,97,0
519490,0,0
519494,0,0
519498,71,0
519502,129,0
519506,0,0
519510,0,0
519514,35,0
519518,118,0
519522,0,0
519526,0,0
519530,5,0
519534,85,0
519538,0,0
519542,0,0
519546,0,0
519550,106,0
519554,24,0
519558,0,0
519562,0,0
519566,109,0
519570,95,0
519574,0,0
519578,0,0
519582,95,0
519586,160,0
519590,0,0
519594,0,0
519598,74,0
519602,183,0
519606,0,0
519610,0,0
519614,31,0
519618,126,0
519622,0,0
519626,0,0
519630,0,0
519634,7,0
519638,0,0
519642,0,0
519646,0,0
519650,38,0
519654,0,0
519658,0,0
519662,0,0
519666,80,0
519670,56,0
519674,0,0
519678,39,0
519682,130,0
519686,187,0
519690,0,0
519694,0,0
519698,142,0
519702,272,0
519706,104,0
519710,0,0
519714,158,0
519718,303,0
519722,175,0
519726,0,0
519730,124,0
519734,286,0
519738,145,0
519742,0,0
519746,40,0
519750,267,0
519754,160,0
519758,0,0
519762,20,0
519766,220,0
519770,201,0
519774,0,0
519778,0,0
519782,192,0
519786,245,0
519790,7,0
519794,0,0
519798,119,0
519802,216,0
519806,11,0
519810,0,0
519814,48,0
519818,170,0
519822,30,0
519826,0,0
519830,4,0
519834,156,0
519838,42,0
519842,0,0
519846,0,0
519850,162,0
519854,92,0
519858,0,0
519862,0,0
519866,128,0
519870,126,0
519874,0,0
519878,0,0
519882,107,0
519886,130,0
519890,0,0
519894,0,0
519898,88,0
519902,138,0
519906,0,0
519910,0,0
519914,0,0
519918,0,0
519922,0,0
519926,0,0
519930,0,0
519934,1,0
519938,0,0
519942,0,0
519946,0,0
519950,36,0
519954,0,0
519958,0,0
519962,0,0
519966,60,0
519970,49,0
519974,0,0
519978,0,0
519982,73,0
519986,139,0
519990,0,0
519994,0,0
519998,100,0
520002,244,0
520006,33,0
520010,4,0
520014,136,0
520018,284,0
520022,129,0
520026,0,0
520030,92,0
520034,199,0
520038,60,0
520042,0,0
520046,6,0
520050,142,0
520054,54,0
520058,0,0
520062,0,0
520066,0,0
520070,0,0
520074,0,0
520078,0,0
520082,15,0
520086,0,0
520090,0,0
520094,0,0
520098,0,0
520102,0,0
520106,0,0
520110,0,0
520114,1,0
520118,82,0
520122,0,0
520126,0,0
520130,5,0
520134,148,0
520138,0,0
520142,0,0
520146,0,0
520150,155,0
520154,75,0
520158,0,0
520162,0,0
520166,88,0
520170,50,0
520174,0,0
520178,0,0
520182,35,0
520186,20,0
520190,0,0
520194,0,0
520198,9,0
520202,40,0
520206,0,0
520210,0,0
520214,0,0
520218,42,0
520222,0,0
520226,0,0
520230,0,0
520234,60,0
520238,0,0
520242,0,0
520246,0,0
520250,77,0
520254,0,0
520258,0,0
520262,0,0
520266,76,0
520270,51,0
520274,0,0
520278,0,0
520282,73,0
520286,41,0
520290,0,0
520294,0,0
520298,15,0
520302,67,0
520306,0,0
520310,0,0
520314,0,0
520318,47,0
520322,0,0
520326,0,0
520330,0,0
520334,41,0
520338,0,0
520342,0,0
520346,0,0
520350,28,0
520354,0,0
520358,0,0
520362,0,0
520366,68,0
520370,35,0
520374,0,0
520378,0,0
520382,69,0
520386,100,0
520390,0,0
520394,0,0
520398,56,0
520402,125,0
520406,0,0
520410,0,0
520414,23,0
520418,110,0
520422,0,0
520426,0,0
520430,0,0
520434,111,0
520438,0,0
520442,0,0
520446,0,0
520450,81,0
520454,22,0
520458,0,0
520462,0,0
520466,80,0
520470,62,0
520474,0,0
520478,0,0
520482,32,0
520486,38,0
520490,0,0
520494,0,0
520498,0,0
520502,0,0
520506,0,0
520510,0,0
520514,0,0
520518,0,0
520522,0,0
520526,0,0
520530,0,0
520534,35,0
520538,0,0
520542,0,0
520546,0,0
520550,0,0
520554,0,0
520558,0,0
520562,0,0
520566,0,0
520570,0,0
520574,0,0
520578,0,0
520582,10,0
520586,47,0
520590,0,0
520594,0,0
520598,83,0
520602,168,0
520606,0,0
520610,0,0
520614,78,0
520618,231,0
520622,94,0
520626,0,0
520630,80,0
520634,268,0
520638,136,0
520642,0,0
520646,32,0
520650,225,0
520654,138,0
520658,0,0
520662,0,0
520666,157,0
520670,118,0
520822,0,0
520826,0,0
520830,0,0
520834,87,0
520838,0,0
520842,0,0
520846,0,0
520850,136,0
520854,74,0
520858,0,0
520862,0,0
520866,161,0
520870,130,0
520874,0,0
520878,0,0
520882,91,0
520886,126,0
520890,0,0
520894,0,0
520898,45,0
520902,86,0
520906,0,0
520910,0,0
520914,4,0
520918,63,0
520922,0,0
520926,0,0
520930,0,0
520934,56,0
520938,0,0
520942,0,0
520946,0,0
520950,68,0
520954,0,0
520958,0,0
520962,0,0
520966,38,0
520970,0,0
520974,0,0
520978,0,0
520982,0,0
520986,2,0
520990,0,0
520994,0,0
520998,0,0
521002,7,0
521006,0,0
521010,0,0
521014,0,0
521018,38,0
521022,0,0
521026,0,0
521030,0,0
521034,60,0
521038,0,0
521042,0,0
521046,0,0
521050,0,0
521054,0,0
521058,0,0
521062,0,0
521066,0,0
521070,0,0
521074,0,0
521078,0,0
521082,0,0
521086,17,0
521090,0,0
521094,0,0
521098,0,0
521102,4,0
521106,0,0
521110,0,0
521114,21,0
521118,125,0
521122,0,0
521126,0,0
521130,10,0
521134,94,0
521138,0,0
521142,0,0
521146,0,0
521150,101,0
521154,0,0
521158,0,0
521162,0,0
521166,103,0
521170,0,0
521174,0,0
521178,0,0
521182,53,0
521186,46,0
521190,0,0
521194,0,0
521198,45,0
521202,94,0
521206,0,0
521210,0,0
521214,36,0
521218,141,0
521222,0,0
521226,0,0
521230,0,0
521234,51,0
521238,0,0
521242,0,0
521246,0,0
521250,55,0
521254,0,0
521258,0,0
521262,0,0
521266,73,0
521270,11,0
521274,0,0
521278,0,0
521282,65,0
521286,81,0
521290,0,0
521294,0,0
521298,73,0
521302,135,0
521306,0,0
521310,0,0
521314,100,0
521318,244,0
521322,44,0
521326,0,0
521330,32,0
521334,141,0
521338,10,0
521342,0,0
521346,0,0
521350,112,0
521354,0,0
521358,0,0
521362,0,0
521366,84,0
521370,0,0
521374,0,0
521378,0,0
521382,63,0
521386,52,0
521390,0,0
521394,0,0
521398,40,0
521402,114,0
521406,0,0
521410,0,0
521414,46,0
521418,177,0
521422,7,0
521426,0,0
521430,1,0
521434,189,0
521438,57,0
521442,0,0
521446,44,0
521450,206,0
521454,109,0
521458,0,0
521462,0,0
521466,196,0
521470,139,0
521474,0,0
521478,0,0
521482,0,0
521486,0,0
521490,0,0
521494,0,0
521498,0,0
521502,25,0
521506,0,0
521510,0,0
521514,0,0
521518,54,0
521522,0,0
521526,0,0
521530,10,0
521534,150,0
521538,11,0
521542,0,0
521546,0,0
521550,162,0
521554,85,0
521558,0,0
521562,0,0
521566,121,0
521570,77,0
521574,0,0
521578,0,0
521582,37,0
521586,3,0
521590,0,0
521594,0,0
521598,2,0
521602,0,0
521606,0,0
521610,0,0
521614,0,0
521618,55,0
521622,0,0
521626,0,0
521630,0,0
521634,89,0
521638,6,0
521642,0,0
521646,0,0
521650,94,0
521654,11,0
521658,0,0
521662,0,0
521666,92,0
521670,65,0
521674,0,0
521678,0,0
521682,88,0
521686,93,0
521690,0,0
521694,0,0
521698,72,0
521702,92,0
521706,0,0
521710,0,0
521714,52,0
521718,115,0
521722,0,0
521726,0,0
521730,0,0
521734,85,0
521738,0,0
521742,0,0
521746,0,0
521750,64,0
521754,0,0
521758,0,0
521762,0,0
521766,57,0
521770,26,0
521774,0,0
521778,0,0
521782,62,0
521786,89,0
521790,0,0
521794,0,0
521798,65,0
521802,116,0
521806,0,0
521810,0,0
521814,24,0
521818,111,0
521822,0,0
521826,0,0
521830,0,0
521834,97,0
521838,0,0
521842,0,0
521846,0,0
521850,41,0
521854,0,0
521858,0,0
521862,0,0
521866,37,0
521870,0,0
521874,0,0
521878,8,0
521882,81,0
521886,41,0
521890,0,0
521894,0,0
521898,5,0
521902,35,0
521906,0,0
521910,0,0
521914,0,0
521918,31,0
521922,0,0
521926,0,0
521930,0,0
521934,92,0
521938,0,0
521942,0,0
521946,0,0
521950,103,0
521954,0,0
521958,0,0
521962,0,0
521966,113,0
521970,31,0
521974,0,0
521978,0,0
521982,83,0
521986,36,0
521990,0,0
521994,0,0
521998,21,0
522002,31,0
522006,0,0
522010,0,0
522014,25,0
522018,107,0
522022,0,0
522026,0,0
522030,24,0
522034,130,0
522038,0,0
522042,0,0
522046,0,0
522050,129,0
522054,5,0
522058,0,0
522062,0,0
522066,107,0
522070,30,0
522074,0,0
522078,0,0
522082,73,0
522086,59,0
522090,0,0
522094,0,0
522098,116,0
522102,225,0
522106,55,0
522110,63,0
522114,412,0
522118,468,0
522122,7,0
522126,0,0
522130,134,0
522134,263,0
522138,67,0
522142,0,0
522146,0,0
522150,5,0
522154,0,0
522158,0,0
522162,0,0
522166,0,0
522170,0,0
522174,0,0
522178,0,0
522182,19,0
522186,43,0
522190,0,0
522194,0,0
522198,44,0
522202,77,0
522206,0,0
522210,0,0
522214,43,0
522218,120,0
522222,0,0
522226,0,0
522230,0,0
522234,85,0
522238,0,0
522242,0,0
522246,0,0
522250,72,0
522254,0,0
522258,0,0
522262,0,0
522266,44,0
522270,0,0
522274,0,0
522278,0,0
522282,32,0
522286,28,0
522290,0,0
522294,0,0
522298,40,0
522302,100,0
522306,0,0
522310,0,0
522314,52,0
522318,159,0
522322,0,0
522326,0,0
522330,35,0
522334,197,0
522338,35,0
522342,0,0
522346,20,0
522350,251,0
522354,197,0
522358,0,0
522362,2,0
522366,134,0
522370,96,0
522374,0,0
522378,0,0
522382,6,0
522386,0,0
522390,0,0
522394,0,0
522398,0,0
522402,0,0
522406,0,0
522410,0,0
522414,0,0
522418,24,0
522422,0,0
522426,0,0
522430,0,0
522434,99,0
522438,0,0
522442,0,0
522446,0,0
522450,119,0
522454,2,0
522458,0,0
522462,0,0
522466,50,0
522470,0,0
522474,0,0
522478,0,0
522482,101,0
522486,90,0
522490,0,0
522494,0,0
522498,77,0
522502,93,0
522506,0,0
522510,0,0
522514,71,0
522518,92,0
522522,0,0
522526,0,0
522530,30,0
522534,134,0
522538,0,0
522542,0,0
522546,0,0
522550,152,0
522554,57,0
522558,0,0
522562,0,0
522566,152,0
522570,129,0
522574,0,0
522578,0,0
522582,218,0
522586,235,0
522590,0,0
522594,0,0
522598,172,0
522602,266,0
522606,19,0
522610,0,0
522614,118,0
522618,232,0
522622,23,0
522626,0,0
522630,82,0
522634,202,0
522638,77,0
522642,0,0
522646,23,0
522650,159,0
522654,47,0
522658,0,0
522662,0,0
522666,135,0
522670,111,0
522674,0,0
522678,0,0
522682,95,0
522686,141,0
522690,0,0
522694,0,0
522698,118,0
522702,226,0
522706,15,0
522710,0,0
522714,120,0
522718,258,0
522722,79,0
522726,0,0
522730,100,0
522734,229,0
522738,75,0
522742,0,0
522746,24,0
522750,191,0
522754,77,0
522758,0,0
522762,0,0
522766,149,0
522770,101,0
522774,0,0
522778,0,0
522782,87,0
522786,115,0
522790,0,0
522794,0,0
522798,100,0
522802,182,0
522806,0,0
522810,0,0
522814,79,0
522818,211,0
522822,46,0
522826,0,0
522830,51,0
522834,222,0
522838,68,0
522842,0,0
522846,7,0
522850,194,0
522854,84,0
522858,0,0
522862,0,0
522866,150,0
522870,100,0
522874,0,0
522878,0,0
522882,109,0
522886,93,0
522890,0,0
522894,0,0
522898,49,0
522902,90,0
522906,0,0
522910,0,0
522914,13,0
522918,65,0
522922,0,0
522926,0,0
522930,1,0
522934,104,0
522938,0,0
522942,0,0
522946,0,0
522950,126,0
522954,30,0
522958,0,0
522962,0,0
522966,110,0
522970,49,0
522974,0,0
522978,0,0
522982,72,0
522986,57,0
522990,0,0
522994,0,0
522998,26,0
523002,19,0
523006,0,0
523010,0,0
523014,0,0
523018,0,0
523022,0,0
523026,0,0
523030,0,0
523034,0,0
523038,0,0
523042,0,0
523046,0,0
523050,44,0
523054,0,0
523058,0,0
523062,0,0
523066,169,0
523070,146,0
523074,0,0
523078,0,0
523082,200,0
523086,267,0
523090,15,0
523094,0,0
523098,263,0
523102,398,0
523106,197,0
523110,110,0
523114,201,0
523118,0,0
523122,0,0
523126,0,0
523130,0,0
523134,0,0
523138,0,0
523142,0,0
523146,0,0
523150,0,0
523154,0,0
523158,0,0
523162,0,0
523166,0,0
523170,0,0
523174,0,0
523178,0,0
523182,60,0
523186,161,0
523190,0,0
523194,0,0
523198,18,0
523202,52,0
523206,0,0
523210,0,0
523214,8,0
523218,106,0
523222,0,0
523226,0,0
523230,114,0
523234,345,0
523238,264,0
523242,159,0
523246,322,0
523250,572,0
523254,454,0
523258,148,0
523262,0,0
523266,24,0
523270,0,0
523274,0,0
523278,0,0
523282,0,0
523286,0,0
523290,0,0
523294,0,0
523298,0,0
523302,0,0
523306,0,0
523310,0,0
523314,0,0
523318,34,0
523322,0,0
523326,0,0
523330,43,0
523334,167,0
523338,45,0
523342,0,0
523346,55,0
523350,270,0
523354,256,0
523358,57,0
523362,143,0
523366,399,0
523370,378,0
523374,104,0
523378,101,0
523382,357,0
523386,403,0
523390,162,0
523394,141,0
523398,342,0
523402,422,0
523406,210,0
523410,100,0
523414,281,0
523418,412,0
523422,226,0
523426,47,0
523430,207,0
523434,381,0
523438,243,0
523442,12,0
523446,126,0
523450,329,0
523454,231,0
523458,0,0
523462,9,0
523466,235,0
523470,173,0
523474,0,0
523478,0,0
523482,107,0
523486,88,0
523490,0,0
523494,0,0
523498,5,0
523502,0,0
523506,0,0
523510,0,0
523514,0,0
523518,58,0
523522,0,0
523526,0,0
523530,55,0
523534,198,0
523538,74,0
523542,0,0
523546,40,0
523550,231,0
523554,169,0
523558,0,0
523562,17,0
523566,225,0
523570,190,0
523574,0,0
523578,0,0
523582,154,0
523586,184,0
523590,0,0
523594,0,0
523598,72,0
523602,108,0
523606,0,0
523610,0,0
523614,41,0
523618,97,0
523622,0,0
523626,0,0
523630,27,0
523634,154,0
523638,14,0
523642,0,0
523646,2,0
523650,142,0
523654,73,0
523658,0,0
523662,0,0
523666,83,0
523670,42,0
523674,0,0
523678,0,0
523682,70,0
523686,72,0
523690,0,0
523694,0,0
523698,37,0
523702,73,0
523706,0,0
523710,0,0
523714,18,0
523718,84,0
523722,0,0
523726,0,0
523730,15,0
523734,124,0
523738,0,0
523742,0,0
523746,2,0
523750,136,0
523754,27,0
523758,0,0
523762,0,0
523766,101,0
523770,53,0
523774,0,0
523778,0,0
523782,40,0
523786,0,0
523790,0,0
523794,0,0
523798,0,0
523802,0,0
523806,0,0
523810,0,0
523814,0,0
523818,0,0
523822,0,0
523826,0,0
523830,0,0
523834,0,0
523838,0,0
523842,0,0
523846,0,0
523850,0,0
523854,0,0
523858,0,0
523862,0,0
523866,60,0
523870,0,0
523874,0,0
523878,0,0
523882,115,0
523886,139,0
523890,0,0
523894,0,0
523898,31,0
523902,111,0
523906,0,0
523910,0,0
523914,28,0
523918,142,0
523922,0,0
523926,0,0
523930,7,0
523934,131,0
523938,0,0
523942,0,0
523946,3,0
523950,167,0
523954,63,0
523958,18,0
523962,0,0
523966,218,0
523970,188,0
523974,0,0
523978,27,0
523982,329,0
523986,368,0
523990,184,0
523994,220,0
523998,478,0
524002,615,0
524006,406,0
524010,286,0
524014,458,0
524018,580,0
524022,385,0
524026,169,0
524030,302,0
524034,467,0
524038,303,0
524042,50,0
524046,160,0
524050,360,0
524054,242,0
524058,0,0
524062,10,0
524066,235,0
524070,163,0
524074,0,0
524078,0,0
524082,119,0
524086,113,0
524090,0,0
524094,0,0
524098,60,0
524102,122,0
524106,0,0
524110,0,0
524114,53,0
524118,148,0
524122,0,0
524126,0,0
524130,29,0
524134,172,0
524138,55,0
524142,0,0
524146,0,0
524150,143,0
524154,81,0
524158,0,0
524162,0,0
524166,149,0
524170,122,0
524174,0,0
524178,0,0
524182,133,0
524186,145,0
524190,0,0
524194,0,0
524198,102,0
524202,141,0
524206,0,0
524210,0,0
524214,37,0
524218,122,0
524222,0,0
524226,0,0
524230,26,0
524234,126,0
524238,0,0
524242,0,0
524246,0,0
524250,98,0
524254,6,0
524258,0,0
524262,0,0
524266,72,0
524270,66,0
524274,0,0
524278,0,0
524282,84,0
524286,124,0
524290,0,0
524294,0,0
524298,67,0
524302,141,0
524306,0,0
524310,0,0
524314,30,0
524318,125,0
524322,0,0
524326,0,0
524330,8,0
524334,116,0
524338,0,0
524342,0,0
524346,0,0
524350,118,0
524354,8,0
524358,0,0
524362,0,0
524366,86,0
524370,46,0
524374,0,0
524378,0,0
524382,65,0
524386,61,0
524390,0,0
524394,0,0
524398,25,0
524402,67,0
524406,0,0
524410,0,0
524414,0,0
524418,63,0
524422,0,0
524426,0,0
524430,8,0
524434,148,0
524438,0,0
524442,0,0
524446,0,0
524450,104,0
524454,0,0
524458,0,0
524462,0,0
524466,68,0
524470,0,0
524474,0,0
524478,0,0
524482,46,0
524486,38,0
524490,0,0
524494,0,0
524498,23,0
524502,65,0
524506,0,0
524510,0,0
524514,40,0
524518,153,0
524522,0,0
524526,0,0
524530,0,0
524534,116,0
524538,0,0
524542,0,0
524546,0,0
524550,126,0
524554,37,0
524558,0,0
524562,0,0
524566,138,0
524570,101,0
524574,0,0
524578,0,0
524582,128,0
524586,100,0
524590,0,0
524594,0,0
524598,97,0
524602,136,0
524606,0,0
524610,0,0
524614,49,0
524618,119,0
524622,0,0
524626,0,0
524630,0,0
524634,71,0
524638,0,0
524642,0,0
524646,1,0
524650,74,0
524654,0,0
524658,0,0
524662,0,0
524666,50,0
524670,0,0
524674,0,0
524678,0,0
524682,51,0
524686,49,0
524690,0,0
524694,0,0
524698,36,0
524702,76,0
524706,0,0
524710,0,0
524714,33,0
524718,99,0
524722,0,0
524726,0,0
524730,43,0
524734,147,0
524738,20,0
524742,0,0
524746,39,0
524750,184,0
524754,104,0
524758,0,0
524762,6,0
524766,154,0
524770,94,0
524774,0,0
524778,0,0
524782,50,0
524786,83,0
524790,0,0
524794,0,0
524798,36,0
524802,85,0
524806,0,0
524810,0,0
524814,12,0
524818,70,0
524822,0,0
524826,0,0
524830,0,0
524834,85,0
524838,0,0
524842,0,0
524846,0,0
524850,72,0
524854,0,0
524858,0,0
524862,0,0
524866,37,0
524870,0,0
524874,0,0
524878,0,0
524882,36,0
524886,37,0
524890,0,0
524894,0,0
524898,27,0
524902,75,0
524906,0,0
524910,0,0
524914,3,0
524918,96,0
524922,0,0
524926,0,0
524930,20,0
524934,94,0
524938,0,0
524942,0,0
524946,0,0
524950,65,0
524954,0,0
524958,0,0
524962,0,0
524966,72,0
524970,5,0
524974,0,0
524978,0,0
524982,40,0
524986,28,0
524990,0,0
524994,0,0
524998,17,0
525002,42,0
525006,0,0
525010,0,0
525014,0,0
525018,54,0
525022,0,0
525026,0,0
525030,0,0
525034,52,0
525038,0,0
525042,0,0
525046,0,0
525050,62,0
525054,0,0
525058,0,0
525062,0,0
525066,53,0
525070,0,0
525074,0,0
525078,0,0
525082,17,0
525086,0,0
525090,0,0
525094,0,0
525098,0,0
525102,0,0
525106,0,0
525110,0,0
525114,0,0
525118,0,0
525122,0,0
525126,0,0
525130,0,0
525134,10,0
525138,0,0
525142,0,0
525146,0,0
525150,0,0
525154,0,0
525158,0,0
525162,0,0
525166,0,0
525170,0,0
525174,0,0
525178,0,0
525182,65,0
525186,46,0
525190,0,0
525194,0,0
525198,29,0
525202,53,0
525206,0,0
525210,0,0
525214,63,0
525218,48,0
525222,0,0
525226,0,0
525230,0,0
525234,54,0
525238,0,0
525242,0,0
525246,0,0
525250,84,0
525254,0,0
525258,0,0
525262,2,0
525266,94,0
525270,32,0
525274,0,0
525278,0,0
525282,97,0
525286,75,0
525290,0,0
525294,0,0
525298,51,0
525302,79,0
525306,0,0
525310,0,0
525314,19,0
525318,71,0
525322,0,0
525326,0,0
525330,0,0
525334,63,0
525338,0,0
525342,0,0
525346,0,0
525350,75,0
525354,0,0
525358,0,0
525362,0,0
525366,77,0
525370,0,0
525374,0,0
525378,0,0
525382,51,0
525386,21,0
525390,0,0
525394,0,0
525398,24,0
525402,63,0
525406,0,0
525410,0,0
525414,15,0
525418,90,0
525422,0,0
525426,0,0
525430,0,0
525434,100,0
525438,0,0
525442,0,0
525446,0,0
525450,110,0
525454,0,0
525458,0,0
525462,0,0
525466,103,0
525470,2,0
525474,0,0
525478,0,0
525482,87,0
525486,50,0
525490,0,0
525494,0,0
525498,63,0
525502,88,0
525506,0,0
525510,0,0
525514,30,0
525518,112,0
525522,3,0
525526,0,0
525530,4,0
525534,139,0
525538,0,0
525542,0,0
525546,0,0
525550,116,0
525554,0,0
525558,0,0
525562,0,0
525566,55,0
525570,0,0
525574,0,0
525578,0,0
525582,122,0
525586,59,0
525590,0,0
525594,0,0
525598,63,0
525602,95,0
525606,0,0
525610,0,0
525614,50,0
525618,94,0
525622,0,0
525626,0,0
525630,20,0
525634,132,0
525638,0,0
525642,0,0
525646,0,0
525650,139,0
525654,15,0
525658,0,0
525662,0,0
525666,149,0
525670,69,0
525674,0,0
525678,3,0
525682,139,0
525686,121,0
525690,0,0
525694,0,0
525698,86,0
525702,138,0
525706,0,0
525710,0,0
525714,60,0
525718,126,0
525722,0,0
525726,0,0
525730,17,0
525734,139,0
525738,0,0
525742,0,0
525746,1,0
525750,112,0
525754,4,0
525758,0,0
525762,0,0
525766,84,0
525770,54,0
525774,0,0
525778,0,0
525782,83,0
525786,93,0
525790,0,0
525794,0,0
525798,46,0
525802,109,0
525806,0,0
525810,0,0
525814,25,0
525818,107,0
525822,0,0
525826,0,0
525830,24,0
525834,117,0
525838,0,0
525842,0,0
525846,0,0
525850,109,0
525854,0,0
525858,0,0
525862,0,0
525866,106,0
525870,27,0
525874,0,0
525878,0,0
525882,66,0
525886,56,0
525890,0,0
525894,0,0
525898,50,0
525902,90,0
525906,0,0
525910,0,0
525914,11,0
525918,108,0
525922,0,0
525926,0,0
525930,0,0
525934,124,0
525938,0,0
525942,0,0
525946,5,0
525950,120,0
525954,0,0
525958,0,0
525962,0,0
525966,125,0
525970,39,0
525974,0,0
525978,0,0
525982,113,0
525986,141,0
525990,0,0
525994,0,0
525998,60,0
526002,145,0
526006,0,0
526010,0,0
526014,68,0
526018,139,0
526022,0,0
526026,0,0
526030,20,0
526034,131,0
526038,0,0
526042,0,0
526046,0,0
526050,127,0
526054,1,0
526058,0,0
526062,0,0
526066,111,0
526070,65,0
526074,0,0
526078,0,0
526082,122,0
526086,104,0
526090,0,0
526094,0,0
526098,90,0
526102,127,0
526106,0,0
526110,0,0
526114,55,0
526118,119,0
526122,0,0
526126,0,0
526130,17,0
526134,132,0
526138,0,0
526142,0,0
526146,0,0
526150,132,0
526154,17,0
526158,0,0
526162,0,0
526166,98,0
526170,51,0
526174,0,0
526178,0,0
526182,85,0
526186,52,0
526190,0,0
526194,0,0
526198,36,0
526202,67,0
526206,0,0
526210,0,0
526214,18,0
526218,70,0
526222,0,0
526226,0,0
526230,5,0
526234,103,0
526238,0,0
526242,0,0
526246,9,0
526250,127,0
526254,0,0
526258,0,0
526262,0,0
526266,140,0
526270,85,0
526274,0,0
526278,13,0
526282,158,0
526286,182,0
526290,0,0
526294,0,0
526298,138,0
526302,176,0
526306,0,0
526310,0,0
526314,50,0
526318,135,0
526322,0,0
526326,0,0
526330,14,0
526334,134,0
526338,0,0
526342,0,0
526346,4,0
526350,92,0
526354,0,0
526358,0,0
526362,0,0
526366,49,0
526370,0,0
526374,0,0
526378,0,0
526382,82,0
526386,28,0
526390,0,0
526394,0,0
526398,44,0
526402,83,0
526406,0,0
526410,0,0
526414,39,0
526418,118,0
526422,0,0
526426,0,0
526430,12,0
526434,142,0
526438,0,0
526442,0,0
526446,0,0
526450,135,0
526454,0,0
526458,0,0
526462,0,0
526466,125,0
526470,33,0
526474,0,0
526478,0,0
526482,113,0
526486,76,0
526490,0,0
526494,0,0
526498,89,0
526502,106,0
526506,0,0
526510,0,0
526514,45,0
526518,120,0
526522,0,0
526526,0,0
526530,3,0
526534,66,0
526538,0,0
526542,0,0
526546,0,0
526550,125,0
526554,0,0
526558,0,0
526562,0,0
526566,129,0
526570,46,0
526574,0,0
526578,0,0
526582,130,0
526586,102,0
526590,0,0
526594,0,0
526598,103,0
526602,120,0
526606,0,0
526610,0,0
526614,58,0
526618,106,0
526622,0,0
526626,0,0
526630,33,0
526634,115,0
526638,0,0
526642,0,0
526646,0,0
526650,94,0
526654,0,0
526658,0,0
526662,0,0
526666,97,0
526670,21,0
526674,0,0
526678,0,0
526682,92,0
526686,73,0
526690,0,0
526694,0,0
526698,73,0
526702,105,0
526706,0,0
526710,0,0
526714,60,0
526718,118,0
526722,0,0
526726,0,0
526730,33,0
526734,134,0
526738,0,0
526742,0,0
526746,3,0
526750,115,0
526754,0,0
526758,0,0
526762,0,0
526766,121,0
526770,35,0
526774,0,0
526778,0,0
526782,98,0
526786,48,0
526790,0,0
526794,0,0
526798,64,0
526802,103,0
526806,0,0
526810,0,0
526814,44,0
526818,121,0
526822,0,0
526826,0,0
526830,21,0
526834,144,0
526838,0,0
526842,0,0
526846,2,0
526850,137,0
526854,0,0
526858,0,0
526862,0,0
526866,113,0
526870,6,0
526874,0,0
526878,0,0
526882,90,0
526886,56,0
526890,0,0
526894,0,0
526898,64,0
526902,93,0
526906,0,0
526910,0,0
526914,29,0
526918,105,0
526922,0,0
526926,0,0
526930,11,0
526934,127,0
526938,0,0
526942,0,0
526946,0,0
526950,136,0
526954,0,0
526958,0,0
526962,0,0
526966,128,0
526970,12,0
526974,0,0
526978,0,0
526982,112,0
526986,54,0
526990,0,0
526994,0,0
526998,86,0
527002,88,0
527006,0,0
527010,0,0
527014,45,0
527018,89,0
527022,0,0
527026,0,0
527030,14,0
527034,117,0
527038,0,0
527042,0,0
527046,0,0
527050,133,0
527054,0,0
527058,0,0
527062,0,0
527066,129,0
527070,26,0
527074,0,0
527078,0,0
527082,97,0
527086,71,0
527090,0,0
527094,0,0
527098,81,0
527102,89,0
527106,0,0
527110,0,0
527114,55,0
527118,106,0
527122,0,0
527126,0,0
527130,27,0
527134,112,0
527138,0,0
527142,0,0
527146,0,0
527150,115,0
527154,0,0
527158,0,0
527162,0,0
527166,110,0
527170,32,0
527174,0,0
527178,0,0
527182,110,0
527186,81,0
527190,0,0
527194,0,0
527198,96,0
527202,115,0
527206,0,0
527210,0,0
527214,49,0
527218,114,0
527222,0,0
527226,0,0
527230,32,0
527234,123,0
527238,0,0
527242,0,0
527246,0,0
527250,98,0
527254,0,0
527258,0,0
527262,0,0
527266,108,0
527270,15,0
527274,0,0
527278,0,0
527282,79,0
527286,70,0
527290,0,0
527294,0,0
527298,68,0
527302,111,0
527306,0,0
527310,0,0
527314,36,0
527318,110,0
527322,0,0
527326,0,0
527330,27,0
527334,132,0
527338,0,0
527342,0,0
527346,1,0
527350,134,0
527354,0,0
527358,0,0
527362,0,0
527366,123,0
527370,4,0
527374,0,0
527378,0,0
527382,104,0
527386,46,0
527390,0,0
527394,0,0
527398,74,0
527402,85,0
527406,0,0
527410,0,0
527414,34,0
527418,96,0
527422,0,0
527426,0,0
527430,7,0
527434,133,0
527438,0,0
527442,0,0
527446,0,0
527450,133,0
527454,0,0
527458,0,0
527462,0,0
527466,119,0
527470,16,0
527474,0,0
527478,0,0
527482,114,0
527486,69,0
527490,0,0
527494,0,0
527498,94,0
527502,135,0
527506,0,0
527510,0,0
527514,64,0
527518,101,0
527522,0,0
527526,0,0
527530,16,0
527534,119,0
527538,0,0
527542,0,0
527546,0,0
527550,146,0
527554,0,0
527558,0,0
527562,0,0
527566,127,0
527570,15,0
527574,0,0
527578,0,0
527582,118,0
527586,68,0
527590,0,0
527594,0,0
527598,92,0
527602,74,0
527606,0,0
527610,0,0
527614,52,0
527618,93,0
527622,0,0
527626,0,0
527630,24,0
527634,109,0
527638,0,0
527642,0,0
527646,1,0
527650,138,0
527654,0,0
527658,0,0
527662,0,0
527666,95,0
527670,13,0
527674,0,0
527678,0,0
527682,83,0
527686,56,0
527690,0,0
527694,0,0
527698,64,0
527702,92,0
527706,0,0
527710,0,0
527714,53,0
527718,107,0
527722,0,0
527726,0,0
527730,39,0
527734,124,0
527738,0,0
527742,0,0
527746,0,0
527750,131,0
527754,0,0
527758,0,0
527762,0,0
527766,123,0
527770,37,0
527774,0,0
527778,0,0
527782,103,0
527786,83,0
527790,0,0
527794,0,0
527798,95,0
527802,139,0
527806,0,0
527810,0,0
527814,52,0
527818,130,0
527822,0,0
527826,0,0
527830,36,0
527834,149,0
527838,0,0
527842,0,0
527846,0,0
527850,127,0
527854,0,0
527858,0,0
527862,0,0
527866,125,0
527870,0,0
527874,0,0
527878,0,0
527882,107,0
527886,52,0
527890,0,0
527894,0,0
527898,67,0
527902,94,0
527906,0,0
527910,0,0
527914,51,0
527918,129,0
527922,0,0
527926,0,0
527930,45,0
527934,192,0
527938,0,0
527942,0,0
527946,15,0
527950,197,0
527954,13,0
527958,0,0
527962,6,0
527966,188,0
527970,66,0
527974,0,0
527978,0,0
527982,181,0
527986,127,0
527990,0,0
527994,0,0
527998,138,0
528002,148,0
528006,0,0
528010,0,0
528014,90,0
528018,163,0
528022,0,0
528026,0,0
528030,47,0
528034,234,0
528038,21,0
528042,0,0
528046,10,0
528050,234,0
528054,81,0
528058,0,0
528062,0,0
528066,215,0
528070,145,0
528074,0,0
528078,0,0
528082,179,0
528086,186,0
528090,0,0
528094,0,0
528098,151,0
528102,201,0
528106,0,0
528110,0,0
528114,141,0
528118,217,0
528122,15,0
528126,0,0
528130,84,0
528134,225,0
528138,46,0
528142,0,0
528146,20,0
528150,182,0
528154,26,0
528158,0,0
528162,0,0
528166,99,0
528170,0,0
528174,0,0
528178,0,0
528182,25,0
528186,2,0
528190,0,0
528194,0,0
528198,53,0
528202,67,0
528206,0,0
528210,0,0
528214,28,0
528218,75,0
528222,0,0
528226,0,0
528230,23,0
528234,95,0
528238,0,0
528242,0,0
528246,0,0
528250,95,0
528254,0,0
528258,0,0
528262,0,0
528266,116,0
528270,38,0
528274,0,0
528278,0,0
528282,48,0
528286,27,0
528290,0,0
528294,0,0
528298,22,0
528302,24,0
528306,0,0
528310,0,0
528314,0,0
528318,21,0
528322,0,0
528326,0,0
528330,14,0
528334,103,0
528338,0,0
528342,0,0
528346,0,0
528350,126,0
528354,0,0
528358,0,0
528362,0,0
528366,126,0
528370,56,0
528374,0,0
528378,0,0
528382,139,0
528386,129,0
528390,0,0
528394,0,0
528398,107,0
528402,143,0
528406,0,0
528410,0,0
528414,97,0
528418,237,0
528422,86,0
528426,37,0
528430,332,0
528434,602,0
528438,488,0
528442,334,0
528446,523,0
528450,780,0
528454,652,0
528458,423,0
528462,514,0
528466,745,0
528470,678,0
528474,399,0
528478,410,0
528482,609,0
528486,602,0
528490,327,0
528494,292,0
528498,470,0
528502,534,0
528506,284,0
528510,188,0
528514,357,0
528518,460,0
528522,278,0
528526,129,0
528530,304,0
528534,481,0
528538,358,0
528542,167,0
528546,319,0
528550,534,0
528554,405,0
528558,161,0
528562,226,0
528566,437,0
528570,380,0
528574,130,0
528578,138,0
528582,357,0
528586,358,0
528590,98,0
528594,76,0
528598,302,0
528602,309,0
528606,120,0
528610,51,0
528614,232,0
528618,311,0
528622,124,0
528626,2,0
528630,134,0
528634,267,0
528638,127,0
528642,0,0
528646,7,0
528650,162,0
528654,10,0
528658,0,0
528662,0,0
528666,2,0
528670,0,0
528674,0,0
528678,0,0
528682,31,0
528686,4,0
528690,0,0
528694,0,0
528698,47,0
528702,49,0
528706,0,0
528710,0,0
528714,13,0
528718,59,0
528722,0,0
528726,0,0
528730,0,0
528734,54,0
528738,0,0
528742,0,0
528746,0,0
528750,88,0
528754,0,0
528758,0,0
528762,0,0
528766,143,0
528770,127,0
528774,0,0
528778,33,0
528782,316,0
528786,383,0
528790,133,0
528794,129,0
528798,401,0
528802,476,0
528806,241,0
528810,182,0
528814,387,0
528818,437,0
528822,224,0
528826,92,0
528830,256,0
528834,393,0
528838,213,0
528842,15,0
528846,148,0
528850,331,0
528854,185,0
528858,10,0
528862,90,0
528866,278,0
528870,199,0
528874,0,0
528878,2,0
528882,183,0
528886,165,0
528890,0,0
528894,0,0
528898,76,0
528902,121,0
528906,0,0
528910,0,0
528914,40,0
528918,137,0
528922,0,0
528926,0,0
528930,39,0
528934,179,0
528938,12,0
528942,0,0
528946,37,0
528950,188,0
528954,19,0
528958,0,0
528962,0,0
528966,103,0
528970,0,0
528974,0,0
528978,0,0
528982,35,0
528986,1,0
528990,0,0
528994,0,0
528998,4,0
529002,4,0
529006,0,0
529010,0,0
529014,0,0
529018,39,0
529022,0,0
529026,0,0
529030,0,0
529034,107,0
529038,0,0
529042,0,0
529046,0,0
529050,134,0
529054,0,0
529058,0,0
529062,0,0
529066,106,0
529070,4,0
529074,0,0
529078,0,0
529082,82,0
529086,29,0
529090,0,0
529094,0,0
529098,71,0
529102,73,0
529106,0,0
529110,0,0
529114,33,0
529118,92,0
529122,0,0
529126,0,0
529130,5,0
529134,86,0
529138,0,0
529142,0,0
529146,0,0
529150,43,0
529154,0,0
529158,0,0
529162,0,0
529166,59,0
529170,0,0
529174,0,0
529178,0,0
529182,67,0
529186,21,0
529190,0,0
529194,0,0
529198,63,0
529202,48,0
529206,0,0
529210,0,0
529214,20,0
529218,54,0
529222,0,0
529226,0,0
529230,6,0
529234,99,0
529238,0,0
529242,0,0
529246,0,0
529250,102,0
529254,0,0
529258,0,0
529262,0,0
529266,133,0
529270,58,0
529274,0,0
529278,0,0
529282,120,0
529286,97,0
529290,0,0
529294,0,0
529298,75,0
529302,97,0
529306,0,0
529310,0,0
529314,58,0
529318,145,0
529322,0,0
529326,0,0
529330,42,0
529334,155,0
529338,4,0
529342,0,0
529346,44,0
529350,186,0
529354,32,0
529358,0,0
529362,1,0
529366,140,0
529370,54,0
529374,0,0
529378,0,0
529382,106,0
529386,62,0
529390,0,0
529394,0,0
529398,67,0
529402,104,0
529406,0,0
529410,0,0
529414,24,0
529418,86,0
529422,0,0
529426,0,0
529430,0,0
529434,0,0
529438,0,0
529442,0,0
529446,0,0
529450,24,0
529454,0,0
529458,0,0
529462,0,0
529466,53,0
529470,0,0
529474,0,0
529478,0,0
529482,71,0
529486,43,0
529490,0,0
529494,0,0
529498,107,0
529502,136,0
529506,0,0
529510,0,0
529514,47,0
529518,69,0
529522,0,0
529526,0,0
529530,0,0
529534,0,0
529538,0,0
529542,0,0
529546,0,0
529550,0,0
529554,0,0
529558,0,0
529562,0,0
529566,2,0
529570,0,0
529574,0,0
529578,0,0
529582,76,0
529586,38,0
529590,0,0
529594,0,0
529598,182,0
529602,255,0
529606,88,0
529610,85,0
529614,332,0
529618,465,0
529622,309,0
529626,172,0
529630,307,0
529634,518,0
529638,320,0
529642,81,0
529646,168,0
529650,277,0
529654,119,0
529658,0,0
529662,0,0
529666,103,0
529670,0,0
529674,0,0
529678,0,0
529682,38,0
529686,0,0
529690,0,0
529694,0,0
529698,38,0
529702,67,0
529706,0,0
529710,0,0
529714,34,0
529718,71,0
529722,0,0
529726,0,0
529730,4,0
529734,36,0
529738,0,0
529742,0,0
529746,0,0
529750,93,0
529754,0,0
529758,0,0
529762,0,0
529766,56,0
529770,0,0
529774,0,0
529778,0,0
529782,41,0
529786,0,0
529790,0,0
529794,0,0
529798,57,0
529802,57,0
529806,0,0
529810,0,0
529814,63,0
529818,74,0
529822,0,0
529826,0,0
529830,0,0
529834,0,0
529838,0,0
529842,0,0
529846,0,0
529850,0,0
529854,0,0
529858,0,0
529862,0,0
529866,38,0
529870,0,0
529874,0,0
529878,0,0
529882,0,0
529886,0,0
529890,0,0
529894,0,0
529898,1,0
529902,0,0
529906,0,0
529910,0,0
529914,30,0
529918,111,0
529922,4,0
529926,0,0
529930,83,0
529934,177,0
529938,32,0
529942,0,0
529946,63,0
529950,172,0
529954,12,0
529958,0,0
529962,0,0
529966,62,0
529970,0,0
529974,0,0
529978,0,0
529982,13,0
529986,0,0
529990,0,0
529994,0,0
529998,0,0
530002,18,0
530006,0,0
530010,0,0
530014,39,0
530018,85,0
530022,0,0
530026,0,0
530030,60,0
530034,159,0
530038,0,0
530042,0,0
530046,48,0
530050,208,0
530054,48,0
530058,0,0
530062,0,0
530066,126,0
530070,0,0
530074,0,0
530078,0,0
530082,52,0
530086,0,0
530090,0,0
530094,0,0
530098,50,0
530102,45,0
530106,0,0
530110,0,0
530114,7,0
530118,21,0
530122,0,0
530126,0,0
530130,0,0
530134,16,0
530138,0,0
530142,0,0
530146,0,0
530150,58,0
530154,0,0
530158,0,0
530162,0,0
530166,141,0
530170,41,0
530174,0,0
530178,0,0
530182,145,0
530186,106,0
530190,0,0
530194,0,0
530198,144,0
530202,139,0
530206,0,0
530210,0,0
530214,139,0
530218,227,0
530222,80,0
530226,0,0
530230,105,0
530234,183,0
530238,41,0
530242,0,0
530246,0,0
530250,119,0
530254,0,0
530258,0,0
530262,11,0
530266,71,0
530270,0,0
530274,0,0
530278,0,0
530282,60,0
530286,0,0
530290,0,0
530294,0,0
530298,56,0
530302,29,0
530306,0,0
530310,0,0
530314,45,0
530318,99,0
530322,0,0
530326,0,0
530330,47,0
530334,49,0
530338,0,0
530342,0,0
530346,0,0
530350,46,0
530354,0,0
530358,0,0
530362,0,0
530366,0,0
530370,0,0
530374,0,0
530378,0,0
530382,0,0
530386,0,0
530390,0,0
530394,0,0
530398,0,0
530402,0,0
530406,0,0
530410,0,0
530414,1,0
530418,0,0
530422,0,0
530426,0,0
530430,11,0
530434,92,0
530438,0,0
530442,0,0
530446,0,0
530450,57,0
530454,0,0
530458,0,0
530462,0,0
530466,51,0
530470,0,0
530474,0,0
530478,0,0
530482,70,0
530486,10,0
530490,0,0
530494,0,0
530498,177,0
530502,211,0
530506,0,0
530510,0,0
530514,234,0
530518,398,0
530522,194,0
530526,101,0
530530,349,0
530534,538,0
530538,338,0
530542,166,0
530546,339,0
530550,477,0
530554,376,0
530558,167,0
530562,324,0
530566,500,0
530570,391,0
530574,157,0
530578,256,0
530582,461,0
530586,434,0
530590,174,0
530594,176,0
530598,380,0
530602,392,0
530606,141,0
530610,81,0
530614,275,0
530618,345,0
530622,134,0
530626,20,0
530630,210,0
530634,336,0
530638,163,0
530642,7,0
530646,169,0
530650,345,0
530654,192,0
530658,0,0
530662,120,0
530666,295,0
530670,178,0
530674,0,0
530678,32,0
530682,241,0
530686,168,0
530690,0,0
530694,0,0
530698,72,0
530702,42,0
530706,0,0
530710,0,0
530714,0,0
530718,0,0
530722,0,0
530726,0,0
530730,0,0
530734,0,0
530738,0,0
530742,0,0
530746,0,0
530750,3,0
530754,0,0
530758,0,0
530762,0,0
530766,108,0
530770,30,0
530774,0,0
530778,0,0
530782,217,0
530786,215,0
530790,0,0
530794,1,0
530798,172,0
530802,178,0
530806,0,0
530810,0,0
530814,74,0
530818,78,0
530978,0,0
530978,0,0
530982,71,0
530986,52,0
530990,0,0
530994,0,0
530998,62,0
531002,97,0
531006,0,0
531010,0,0
531014,79,0
531018,120,0
531022,0,0
531026,0,0
531030,56,0
531034,102,0
531038,0,0
531042,0,0
531046,14,0
531050,111,0
531054,0,0
531058,0,0
531062,0,0
531066,70,0
531070,0,0
531074,0,0
531078,0,0
531082,57,0
531086,0,0
531090,0,0
531094,0,0
531098,53,0
531102,33,0
531106,0,0
531110,0,0
531114,21,0
531118,68,0
531122,0,0
531126,0,0
531130,21,0
531134,98,0
531138,0,0
531142,0,0
531146,18,0
531150,123,0
531154,0,0
531158,0,0
531162,0,0
531166,69,0
531170,0,0
531174,0,0
531178,0,0
531182,78,0
531186,1,0
531190,0,0
531194,0,0
531198,65,0
531202,19,0
531206,0,0
531210,0,0
531214,50,0
531218,71,0
531222,0,0
531226,0,0
531230,0,0
531234,31,0
531238,0,0
531242,0,0
531246,0,0
531250,98,0
531254,0,0
531258,0,0
531262,0,0
531266,127,0
531270,0,0
531274,0,0
531278,0,0
531282,175,0
531286,125,0
531290,0,0
531294,4,0
531298,210,0
531302,228,0
531306,0,0
531310,0,0
531314,174,0
531318,178,0
531322,0,0
531326,0,0
531330,67,0
531334,84,0
531338,0,0
531342,0,0
531346,0,0
531350,0,0
531354,0,0
531358,0,0
531362,0,0
531366,0,0
531370,0,0
531374,0,0
531378,0,0
531382,0,0
531386,0,0
531390,0,0
531394,0,0
531398,0,0
531402,0,0
531406,0,0
531410,0,0
531414,65,0
531418,77,0
531422,0,0
531426,0,0
531430,115,0
531434,175,0
531438,0,0
531442,0,0
531446,71,0
531450,166,0
531454,5,0
531458,0,0
531462,11,0
531466,119,0
531470,12,0
531474,0,0
531478,0,0
531482,140,0
531486,111,0
531490,0,0
531494,0,0
531498,164,0
531502,171,0
531506,0,0
531510,0,0
531514,61,0
531518,92,0
531522,0,0
531526,0,0
531530,38,0
531534,118,0
531538,0,0
531542,0,0
531546,22,0
531550,146,0
531554,0,0
531558,0,0
531562,8,0
531566,153,0
531570,19,0
531574,0,0
531578,5,0
531582,170,0
531586,103,0
531590,0,0
531594,0,0
531598,126,0
531602,104,0
531606,0,0
531610,0,0
531614,64,0
531618,73,0
531622,0,0
531626,0,0
531630,1,0
531634,28,0
531638,0,0
531642,0,0
531646,0,0
531650,59,0
531654,0,0
531658,0,0
531662,0,0
531666,99,0
531670,0,0
531674,0,0
531678,0,0
531682,119,0
531686,20,0
531690,0,0
531694,0,0
531698,121,0
531702,84,0
531706,0,0
531710,0,0
531714,79,0
531718,88,0
531722,0,0
531726,0,0
531730,5,0
531734,53,0
531738,0,0
531742,0,0
531746,0,0
531750,37,0
531754,0,0
531758,0,0
531762,0,0
531766,50,0
531770,0,0
531774,0,0
531778,0,0
531782,52,0
531786,49,0
531790,0,0
531794,0,0
531798,63,0
531802,23,0
531806,0,0
531810,0,0
531814,37,0
531818,28,0
531822,0,0
531826,0,0
531830,38,0
531834,71,0
531838,0,0
531842,0,0
531846,45,0
531850,122,0
531854,0,0
531858,0,0
531862,6,0
531866,148,0
531870,52,0
531874,0,0
531878,2,0
531882,140,0
531886,87,0
531890,0,0
531894,0,0
531898,103,0
531902,78,0
531906,0,0
531910,0,0
531914,82,0
531918,111,0
531922,0,0
531926,0,0
531930,40,0
531934,124,0
531938,0,0
531942,0,0
531946,24,0
531950,114,0
531954,0,0
531958,0,0
531962,8,0
531966,94,0
531970,0,0
531974,0,0
531978,0,0
531982,71,0
531986,0,0
531990,0,0
531994,0,0
531998,68,0
532002,65,0
532006,0,0
532010,0,0
532014,54,0
532018,81,0
532022,0,0
532026,0,0
532030,25,0
532034,74,0
532038,0,0
532042,0,0
532046,8,0
532050,79,0
532054,0,0
532058,0,0
532062,0,0
532066,106,0
532070,0,0
532074,0,0
532078,0,0
532082,92,0
532086,4,0
532090,0,0
532094,0,0
532098,98,0
532102,62,0
532106,0,0
532110,0,0
532114,76,0
532118,70,0
532122,0,0
532126,0,0
532130,15,0
532134,53,0
532138,0,0
532142,0,0
532146,0,0
532150,32,0
532154,0,0
532158,0,0
532162,0,0
532166,27,0
532170,0,0
532174,0,0
532178,0,0
532182,39,0
532186,0,0
532190,0,0
532194,0,0
532198,43,0
532202,0,0
532206,0,0
532210,0,0
532214,44,0
532218,8,0
532222,0,0
532226,0,0
532230,0,0
532234,0,0
532238,0,0
532242,0,0
532246,0,0
532250,0,0
532254,0,0
532258,0,0
532262,0,0
532266,0,0
532270,0,0
532274,0,0
532278,0,0
532282,19,0
532286,0,0
532290,0,0
532294,0,0
532298,0,0
532302,0,0
532306,0,0
532310,0,0
532314,0,0
532318,0,0
532322,0,0
532326,0,0
532330,8,0
532334,34,0
532338,0,0
532342,0,0
532346,25,0
532350,90,0
532354,0,0
532358,0,0
532362,0,0
532366,100,0
532370,0,0
532374,0,0
532378,0,0
532382,106,0
532386,30,0
532390,0,0
532394,0,0
532398,204,0
532402,242,0
532406,37,0
532410,104,0
532414,402,0
532418,485,0
532422,223,0
532426,182,0
532430,423,0
532434,527,0
532438,283,0
532442,156,0
532446,320,0
532450,406,0
532454,195,0
532458,0,0
532462,116,0
532466,212,0
532470,25,0
532474,0,0
532478,0,0
532482,48,0
532486,0,0
532490,0,0
532494,0,0
532498,0,0
532502,0,0
532506,0,0
532510,0,0
532514,0,0
532518,0,0
532522,0,0
532526,0,0
532530,0,0
532534,46,0
532538,0,0
532542,0,0
532546,27,0
532550,116,0
532554,0,0
532558,0,0
532562,28,0
532566,77,0
532570,0,0
532574,0,0
532578,0,0
532582,0,0
532586,0,0
532590,0,0
532594,0,0
532598,0,0
532602,0,0
532606,0,0
532610,0,0
532614,0,0
532618,0,0
532622,0,0
532626,0,0
532630,0,0
532634,0,0
532638,0,0
532642,0,0
532646,0,0
532650,17,0
532654,0,0
532658,0,0
532662,0,0
532666,57,0
532670,0,0
532674,0,0
532678,0,0
532682,52,0
532686,0,0
532690,0,0
532694,0,0
532698,59,0
532702,0,0
532706,0,0
532710,0,0
532714,50,0
532718,12,0
532722,0,0
532726,0,0
532730,23,0
532734,36,0
532738,0,0
532742,0,0
532746,0,0
532750,70,0
532754,0,0
532758,0,0
532762,12,0
532766,76,0
532770,0,0
532774,0,0
532778,0,0
532782,72,0
532786,0,0
532790,0,0
532794,0,0
532798,65,0
532802,0,0
532806,0,0
532810,0,0
532814,53,0
532818,4,0
532822,0,0
532826,0,0
532830,53,0
532834,54,0
532838,0,0
532842,0,0
532846,25,0
532850,61,0
532854,0,0
532858,0,0
532862,13,0
532866,107,0
532870,0,0
532874,0,0
532878,0,0
532882,115,0
532886,0,0
532890,0,0
532894,0,0
532898,84,0
532902,14,0
532906,0,0
532910,0,0
532914,92,0
532918,54,0
532922,0,0
532926,0,0
532930,39,0
532934,58,0
532938,0,0
532942,0,0
532946,3,0
532950,33,0
532954,0,0
532958,0,0
532962,0,0
532966,68,0
532970,0,0
532974,0,0
532978,0,0
532982,118,0
532986,7,0
532990,0,0
532994,0,0
532998,102,0
533002,58,0
533006,0,0
533010,0,0
533014,56,0
533018,57,0
533022,0,0
533026,0,0
533030,25,0
533034,52,0
533038,0,0
533042,0,0
533046,18,0
533050,65,0
533054,0,0
533058,0,0
533062,4,0
533066,87,0
533070,0,0
533074,0,0
533078,0,0
533082,75,0
533086,0,0
533090,0,0
533094,0,0
533098,106,0
533102,36,0
533106,0,0
533110,0,0
533114,147,0
533118,145,0
533122,0,0
533126,0,0
533130,93,0
533134,156,0
533138,0,0
533142,0,0
533146,18,0
533150,95,0
533154,0,0
533158,0,0
533162,0,0
533166,95,0
533170,0,0
533174,0,0
533178,0,0
533182,104,0
533186,0,0
533190,0,0
533194,0,0
533198,108,0
533202,18,0
533206,0,0
533210,0,0
533214,92,0
533218,85,0
533222,0,0
533226,0,0
533230,70,0
533234,106,0
533238,0,0
533242,0,0
533246,30,0
533250,109,0
533254,0,0
533258,0,0
533262,3,0
533266,105,0
533270,0,0
533274,0,0
533278,0,0
533282,88,0
533286,0,0
533290,0,0
533294,0,0
533298,77,0
533302,0,0
533306,0,0
533310,0,0
533314,71,0
533318,28,0
533322,0,0
533326,0,0
533330,36,0
533334,35,0
533338,0,0
533342,0,0
533346,15,0
533350,53,0
533354,0,0
533358,0,0
533362,0,0
533366,73,0
533370,0,0
533374,0,0
533378,0,0
533382,74,0
533386,0,0
533390,0,0
533394,0,0
533398,76,0
533402,2,0
533406,0,0
533410,0,0
533414,133,0
533418,49,0
533422,0,0
533426,0,0
533430,42,0
533434,68,0
533438,0,0
533442,0,0
533446,59,0
533450,58,0
533454,0,0
533458,0,0
533462,9,0
533466,74,0
533470,0,0
533474,0,0
533478,0,0
533482,80,0
533486,0,0
533490,0,0
533494,0,0
533498,68,0
533502,0,0
533506,0,0
533510,0,0
533514,65,0
533518,40,0
533522,0,0
533526,0,0
533530,39,0
533534,67,0
533538,0,0
533542,0,0
533546,35,0
533550,100,0
533554,0,0
533558,0,0
533562,23,0
533566,122,0
533570,0,0
533574,0,0
533578,0,0
533582,136,0
533586,0,0
533590,0,0
533594,0,0
533598,132,0
533602,26,0
533606,0,0
533610,0,0
533614,109,0
533618,78,0
533622,0,0
533626,0,0
533630,68,0
533634,119,0
533638,0,0
533642,0,0
533646,58,0
533650,146,0
533654,0,0
533658,0,0
533662,25,0
533666,151,0
533670,0,0
533674,0,0
533678,8,0
533682,151,0
533686,0,0
533690,0,0
533694,0,0
533698,125,0
533702,0,0
533706,0,0
533710,0,0
533714,94,0
533718,24,0
533722,0,0
533726,0,0
533730,59,0
533734,49,0
533738,0,0
533742,0,0
533746,31,0
533750,59,0
533754,0,0
533758,0,0
533762,14,0
533766,115,0
533770,0,0
533774,0,0
533778,0,0
533782,125,0
533786,0,0
533790,0,0
533794,0,0
533798,144,0
533802,14,0
533806,0,0
533810,0,0
533814,130,0
533818,63,0
533822,0,0
533826,0,0
533830,112,0
533834,94,0
533838,0,0
533842,0,0
533846,66,0
533850,95,0
533854,0,0
533858,0,0
533862,36,0
533866,107,0
533870,0,0
533874,0,0
533878,0,0
533882,96,0
533886,0,0
533890,0,0
533894,0,0
533898,121,0
533902,13,0
533906,0,0
533910,0,0
533914,129,0
533918,71,0
533922,0,0
533926,0,0
533930,126,0
533934,95,0
533938,0,0
533942,0,0
533946,61,0
533950,126,0
533954,0,0
533958,0,0
533962,54,0
533966,124,0
533970,0,0
533974,0,0
533978,11,0
533982,121,0
533986,0,0
533990,0,0
533994,0,0
533998,83,0
534002,1,0
534006,0,0
534010,0,0
534014,73,0
534018,29,0
534022,0,0
534026,0,0
534030,64,0
534034,55,0
534038,0,0
534042,0,0
534046,33,0
534050,68,0
534054,0,0
534058,0,0
534062,3,0
534066,40,0
534070,0,0
534074,0,0
534078,0,0
534082,48,0
534086,0,0
534090,0,0
534094,0,0
534098,68,0
534102,0,0
534106,0,0
534110,0,0
534114,50,0
534118,0,0
534122,0,0
534126,0,0
534130,44,0
534134,106,0
534138,0,0
534142,0,0
534146,35,0
534150,94,0
534154,0,0
534158,0,0
534162,7,0
534166,81,0
534170,0,0
534174,0,0
534178,0,0
534182,122,0
534186,0,0
534190,0,0
534194,1,0
534198,138,0
534202,5,0
534206,0,0
534210,0,0
534214,165,0
534218,85,0
534222,0,0
534226,0,0
534230,84,0
534234,78,0
534238,0,0
534242,0,0
534246,106,0
534250,173,0
534254,0,0
534258,0,0
534262,88,0
534266,195,0
534270,0,0
534274,0,0
534278,22,0
534282,189,0
534286,1,0
534290,0,0
534294,0,0
534298,165,0
534302,11,0
534306,0,0
534310,0,0
534314,139,0
534318,50,0
534322,0,0
534326,0,0
534330,135,0
534334,110,0
534338,0,0
534342,0,0
534346,99,0
534350,162,0
534354,0,0
534358,0,0
534362,47,0
534366,134,0
534370,11,0
534374,0,0
534378,78,0
534382,209,0
534386,35,0
534390,0,0
534394,12,0
534398,186,0
534402,63,0
534406,0,0
534410,0,0
534414,169,0
534418,113,0
534422,0,0
534426,0,0
534430,152,0
534434,164,0
534438,0,0
534442,0,0
534446,134,0
534450,181,0
534454,0,0
534458,0,0
534462,103,0
534466,180,0
534470,0,0
534474,0,0
534478,46,0
534482,166,0
534486,24,0
534490,0,0
534494,16,0
534498,140,0
534502,14,0
534506,0,0
534510,0,0
534514,109,0
534518,25,0
534522,0,0
534526,0,0
534530,74,0
534534,53,0
534538,0,0
534542,0,0
534546,71,0
534550,115,0
534554,0,0
534558,0,0
534562,55,0
534566,122,0
534570,0,0
534574,0,0
534578,36,0
534582,150,0
534586,0,0
534590,0,0
534594,6,0
534598,126,0
534602,4,0
534606,0,0
534610,0,0
534614,135,0
534618,80,0
534622,0,0
534626,0,0
534630,91,0
534634,89,0
534638,0,0
534642,0,0
534646,28,0
534650,98,0
534654,0,0
534658,0,0
534662,29,0
534666,79,0
534670,0,0
534674,0,0
534678,24,0
534682,124,0
534686,0,0
534690,0,0
534694,14,0
534698,171,0
534702,36,0
534706,0,0
534710,0,0
534714,184,0
534718,117,0
534722,0,0
534726,0,0
534730,137,0
534734,137,0
534738,0,0
534742,0,0
534746,85,0
534750,142,0
534754,0,0
534758,0,0
534762,27,0
534766,108,0
534770,0,0
534774,0,0
534778,0,0
534782,80,0
534786,0,0
534790,0,0
534794,0,0
534798,78,0
534802,0,0
534806,0,0
534810,0,0
534814,86,0
534818,0,0
534822,0,0
534826,0,0
534830,120,0
534834,103,0
534838,0,0
534842,0,0
534846,124,0
534850,192,0
534854,0,0
534858,0,0
534862,128,0
534866,243,0
534870,72,0
534874,0,0
534878,103,0
534882,244,0
534886,81,0
534890,0,0
534894,2,0
534898,161,0
534902,14,0
534906,0,0
534910,0,0
534914,100,0
534918,3,0
534922,0,0
534926,0,0
534930,72,0
534934,33,0
534938,0,0
534942,0,0
534946,54,0
534950,70,0
534954,0,0
534958,0,0
534962,50,0
534966,97,0
534970,0,0
534974,0,0
534978,27,0
534982,137,0
534986,0,0
534990,0,0
534994,0,0
534998,143,0
535002,10,0
535006,0,0
535010,0,0
535014,122,0
535018,71,0
535022,0,0
535026,0,0
535030,83,0
535034,52,0
535038,0,0
535042,0,0
535046,53,0
535050,58,0
535054,0,0
535058,0,0
535062,29,0
535066,75,0
535070,0,0
535074,0,0
535078,31,0
535082,133,0
535086,0,0
535090,1,0
535094,22,0
535098,156,0
535102,9,0
535106,0,0
535110,3,0
535114,146,0
535118,55,0
535122,0,0
535126,0,0
535130,91,0
535134,60,0
535138,0,0
535142,0,0
535146,36,0
535150,76,0
535154,0,0
535158,0,0
535162,28,0
535166,62,0
535170,0,0
535174,0,0
535178,10,0
535182,104,0
535186,0,0
535190,0,0
535194,0,0
535198,117,0
535202,0,0
535206,0,0
535210,0,0
535214,106,0
535218,4,0
535222,0,0
535226,0,0
535230,86,0
535234,56,0
535238,0,0
535242,0,0
535246,64,0
535250,74,0
535254,0,0
535258,0,0
535262,3,0
535266,37,0
535270,0,0
535274,0,0
535278,0,0
535282,67,0
535286,0,0
535290,0,0
535294,0,0
535298,91,0
535302,0,0
535306,0,0
535310,0,0
535314,84,0
535318,0,0
535322,0,0
535326,0,0
535330,85,0
535334,29,0
535338,0,0
535342,0,0
535346,79,0
535350,99,0
535354,0,0
535358,0,0
535362,82,0
535366,153,0
535370,0,0
535374,0,0
535378,59,0
535382,153,0
535386,0,0
535390,0,0
535394,0,0
535398,127,0
535402,0,0
535406,0,0
535410,0,0
535414,113,0
535418,25,0
535422,0,0
535426,0,0
535430,98,0
535434,50,0
535438,0,0
535442,0,0
535446,78,0
535450,70,0
535454,0,0
535458,0,0
535462,50,0
535466,85,0
535470,0,0
535474,0,0
535478,38,0
535482,111,0
535486,0,0
535490,0,0
535494,3,0
535498,93,0
535502,0,0
535506,0,0
535510,0,0
535514,59,0
535518,0,0
535522,0,0
535526,0,0
535530,53,0
535534,3,0
535538,0,0
535542,0,0
535546,38,0
535550,30,0
535554,0,0
535558,0,0
535562,15,0
535566,47,0
535570,0,0
535574,0,0
535578,3,0
535582,67,0
535586,0,0
535590,0,0
535594,0,0
535598,97,0
535602,0,0
535606,0,0
535610,0,0
535614,102,0
535618,5,0
535622,0,0
535626,0,0
535630,90,0
535634,40,0
535638,0,0
535642,0,0
535646,57,0
535650,62,0
535654,0,0
535658,0,0
535662,17,0
535666,62,0
535670,0,0
535674,0,0
535678,0,0
535682,55,0
535686,0,0
535690,0,0
535694,0,0
535698,88,0
535702,0,0
535706,0,0
535710,0,0
535714,104,0
535718,0,0
535722,0,0
535726,0,0
535730,91,0
535734,21,0
535738,0,0
535742,0,0
535746,59,0
535750,40,0
535754,0,0
535758,0,0
535762,23,0
535766,61,0
535770,0,0
535774,0,0
535778,2,0
535782,65,0
535786,0,0
535790,0,0
535794,0,0
535798,72,0
535802,0,0
535806,0,0
535810,0,0
535814,62,0
535818,0,0
535822,0,0
535826,0,0
535830,51,0
535834,0,0
535838,0,0
535842,0,0
535846,60,0
535850,33,0
535854,0,0
535858,0,0
535862,44,0
535866,59,0
535870,0,0
535874,0,0
535878,0,0
535882,60,0
535886,0,0
535890,0,0
535894,0,0
535898,64,0
535902,0,0
535906,0,0
535910,0,0
535914,81,0
535918,0,0
535922,0,0
535926,0,0
535930,63,0
535934,0,0
535938,0,0
535942,0,0
535946,32,0
535950,15,0
535954,0,0
535958,0,0
535962,22,0
535966,17,0
535970,0,0
535974,0,0
535978,0,0
535982,0,0
535986,0,0
535990,0,0
535994,0,0
535998,0,0
536002,0,0
536006,0,0
536010,0,0
536014,0,0
536018,0,0
536022,0,0
536026,0,0
536030,4,0
536034,0,0
536038,0,0
536042,0,0
536046,25,0
536050,7,0
536054,0,0
536058,0,0
536062,42,0
536066,59,0
536070,0,0
536074,0,0
536078,23,0
536082,61,0
536086,0,0
536090,0,0
536094,18,0
536098,101,0
536102,0,0
536106,0,0
536110,2,0
536114,122,0
536118,0,0
536122,0,0
536126,0,0
536130,121,0
536134,66,0
536138,0,0
536142,0,0
536146,112,0
536150,114,0
536154,0,0
536158,0,0
536162,80,0
536166,156,0
536170,0,0
536174,0,0
536178,76,0
536182,197,0
536186,3,0
536190,0,0
536194,123,0
536198,317,0
536202,180,0
536206,6,0
536210,144,0
536214,311,0
536218,134,0
536222,0,0
536226,0,0
536230,29,0
536234,0,0
536238,0,0
536242,0,0
536246,0,0
536250,6,0
536254,0,0
536258,0,0
536262,0,0
536266,0,0
536270,0,0
536274,0,0
536278,2,0
536282,78,0
536286,0,0
536290,0,0
536294,5,0
536298,113,0
536302,0,0
536306,0,0
536310,0,0
536314,117,0
536318,0,0
536322,0,0
536326,0,0
536330,92,0
536334,0,0
536338,0,0
536342,0,0
536346,61,0
536350,17,0
536354,0,0
536358,0,0
536362,48,0
536366,82,0
536370,0,0
536374,0,0
536378,0,0
536382,0,0
536386,0,0
536390,0,0
536394,0,0
536398,35,0
536402,0,0
536406,0,0
536410,0,0
536414,39,0
536418,0,0
536422,0,0
536426,0,0
536430,101,0
536434,45,0
536438,0,0
536442,0,0
536446,204,0
536450,209,0
536454,16,0
536458,44,0
536462,242,0
536466,258,0
536470,0,0
536474,0,0
536478,46,0
536482,83,0
536486,0,0
536490,0,0
536494,0,0
536498,0,0
536502,0,0
536506,0,0
536510,0,0
536514,32,0
536518,0,0
536522,0,0
536526,0,0
536530,70,0
536534,0,0
536538,0,0
536542,0,0
536546,96,0
536550,33,0
536554,0,0
536558,0,0
536562,134,0
536566,188,0
536570,2,0
536574,16,0
536578,285,0
536582,437,0
536586,297,0
536590,134,0
536594,310,0
536598,405,0
536602,202,0
536606,0,0
536610,90,0
536614,269,0
536618,96,0
536622,0,0
536626,0,0
536630,195,0
536634,98,0
536638,0,0
536642,0,0
536646,143,0
536650,103,0
536654,0,0
536658,0,0
536662,103,0
536666,93,0
536670,0,0
536674,0,0
536678,36,0
536682,63,0
536686,0,0
536690,0,0
536694,11,0
536698,55,0
536702,0,0
536706,0,0
536710,0,0
536714,98,0
536718,0,0
536722,0,0
536726,0,0
536730,90,0
536734,1,0
536738,0,0
536742,0,0
536746,102,0
536750,55,0
536754,0,0
536758,0,0
536762,95,0
536766,114,0
536770,0,0
536774,0,0
536778,55,0
536782,117,0
536786,0,0
536790,0,0
536794,29,0
536798,102,0
536802,0,0
536806,0,0
536810,4,0
536814,100,0
536818,0,0
536822,0,0
536826,0,0
536830,123,0
536834,0,0
536838,0,0
536842,0,0
536846,48,0
536850,10,0
536854,0,0
536858,0,0
536862,27,0
536866,50,0
536870,0,0
536874,0,0
536878,51,0
536882,80,0
536886,0,0
536890,0,0
536894,75,0
536898,217,0
536902,62,0
536906,0,0
536910,241,0
536914,395,0
536918,171,0
536922,0,0
536926,30,0
536930,173,0
536934,63,0
536938,0,0
536942,0,0
536946,118,0
536950,61,0
536954,0,0
536958,0,0
536962,94,0
536966,102,0
536970,0,0
536974,0,0
536978,54,0
536982,124,0
536986,0,0
536990,0,0
536994,20,0
536998,120,0
537002,0,0
537006,0,0
537010,5,0
537014,111,0
537018,0,0
537022,0,0
537026,0,0
537030,248,0
537034,0,0
537038,0,0
537042,0,0
537046,5,0
537050,0,0
537054,0,0
537058,0,0
537062,108,0
537066,140,0
537070,0,0
537074,0,0
537078,261,0
537082,451,0
537086,315,0
537090,284,0
537094,558,0
537098,739,0
537102,529,0
537106,266,0
537110,420,0
537114,595,0
537118,269,0
537122,0,0
537126,135,0
537130,399,0
537134,274,0
537138,0,0
537142,90,0
537146,370,0
537150,304,0
537154,0,0
537158,36,0
537162,292,0
537166,280,0
537170,0,0
537174,0,0
537178,203,0
537182,223,0
537186,0,0
537190,0,0
537194,58,0
537198,126,0
537202,0,0
537206,0,0
537210,0,0
537214,62,0
537218,0,0
537222,0,0
537226,0,0
537230,47,0
537234,0,0
537238,0,0
537242,0,0
537246,91,0
537250,7,0
537254,0,0
537258,0,0
537262,76,0
537266,62,0
537270,0,0
537274,0,0
537278,67,0
537282,71,0
537286,0,0
537290,0,0
537294,20,0
537298,38,0
537302,0,0
537306,0,0
537310,4,0
537314,13,0
537318,0,0
537322,0,0
537326,0,0
537330,18,0
537334,0,0
537338,0,0
537342,0,0
537346,34,0
537350,0,0
537354,0,0
537358,0,0
537362,86,0
537366,50,0
537370,0,0
537374,0,0
537378,77,0
537382,130,0
537386,0,0
537390,0,0
537394,71,0
537398,169,0
537402,0,0
537406,0,0
537410,32,0
537414,121,0
537418,0,0
537422,0,0
537426,0,0
537430,0,0
537434,0,0
537438,0,0
537442,0,0
537446,149,0
537450,116,0
537454,0,0
537458,15,0
537462,275,0
537466,358,0
537470,70,0
537474,48,0
537478,187,0
537482,220,0
537486,0,0
537490,0,0
537494,70,0
537498,151,0
537502,0,0
537506,0,0
537510,92,0
537514,223,0
537518,17,0
537522,0,0
537526,0,0
537530,150,0
537534,29,0
537538,0,0
537542,0,0
537546,186,0
537550,113,0
537554,0,0
537558,6,0
537562,203,0
537566,230,0
537570,8,0
537574,0,0
537578,177,0
537582,284,0
537586,57,0
537590,0,0
537594,137,0
537598,265,0
537602,86,0
537606,0,0
537610,62,0
537614,208,0
537618,20,0
537622,0,0
537626,2,0
537630,130,0
537634,0,0
537638,0,0
537642,0,0
537646,29,0
537650,0,0
537654,0,0
537658,0,0
537662,0,0
537666,0,0
537670,0,0
537674,0,0
537678,3,0
537682,0,0
537686,0,0
537690,0,0
537694,0,0
537698,0,0
537702,0,0
537706,0,0
537710,0,0
537714,0,0
537718,0,0
537722,0,0
537726,0,0
537730,21,0
537734,0,0
537738,0,0
537742,14,0
537746,104,0
537750,3,0
537754,0,0
537758,0,0
537762,113,0
537766,83,0
537770,0,0
537774,0,0
537778,79,0
537782,105,0
537786,0,0
537790,0,0
537794,41,0
537798,119,0
537802,0,0
537806,0,0
537810,32,0
537814,118,0
537818,0,0
537822,0,0
537826,0,0
537830,95,0
537834,0,0
537838,0,0
537842,0,0
537846,70,0
537850,0,0
537854,0,0
537858,0,0
537862,49,0
537866,0,0
537870,0,0
537874,0,0
537878,73,0
537882,35,0
537886,0,0
537890,0,0
537894,21,0
537898,56,0
537902,0,0
537906,0,0
537910,36,0
537914,116,0
537918,0,0
537922,0,0
537926,0,0
537930,149,0
537934,0,0
537938,0,0
537942,0,0
537946,149,0
537950,65,0
537954,0,0
537958,0,0
537962,115,0
537966,132,0
537970,0,0
537974,0,0
537978,36,0
537982,12,0
537986,0,0
537990,0,0
537994,51,0
537998,98,0
538002,0,0
538006,0,0
538010,30,0
538014,103,0
538018,0,0
538022,0,0
538026,8,0
538030,107,0
538034,0,0
538038,0,0
538042,0,0
538046,133,0
538050,53,0
538054,0,0
538058,0,0
538062,134,0
538066,138,0
538070,0,0
538074,0,0
538078,160,0
538082,170,0
538086,0,0
538090,0,0
538094,26,0
538098,51,0
538102,0,0
538106,0,0
538110,9,0
538114,86,0
538118,0,0
538122,0,0
538126,11,0
538130,152,0
538134,0,0
538138,0,0
538142,27,0
538146,236,0
538150,161,0
538154,0,0
538158,49,0
538162,248,0
538166,194,0
538170,0,0
538174,0,0
538178,120,0
538182,89,0
538186,0,0
538190,0,0
538194,50,0
538198,99,0
538202,0,0
538206,0,0
538210,18,0
538214,111,0
538218,0,0
538222,0,0
538226,8,0
538230,113,0
538234,0,0
538238,0,0
538242,0,0
538246,121,0
538250,0,0
538254,0,0
538258,0,0
538262,144,0
538266,19,0
538270,0,0
538274,0,0
538278,60,0
538282,31,0
538286,0,0
538290,1,0
538294,31,0
538298,30,0
538302,0,0
538306,0,0
538310,1,0
538314,62,0
538318,0,0
538322,0,0
538326,11,0
538330,140,0
538334,4,0
538338,0,0
538342,43,0
538346,270,0
538350,174,0
538354,1,0
538358,102,0
538362,362,0
538366,326,0
538370,67,0
538374,80,0
538378,286,0
538382,253,0
538386,0,0
538390,0,0
538394,176,0
538398,271,0
538402,31,0
538406,0,0
538410,127,0
538414,263,0
538418,97,0
538422,0,0
538426,67,0
538430,176,0
538434,27,0
538438,0,0
538442,15,0
538446,154,0
538450,34,0
538454,0,0
538458,0,0
538462,96,0
538466,9,0
538470,0,0
538474,0,0
538478,49,0
538482,0,0
538486,0,0
538490,0,0
538494,3,0
538498,19,0
538502,0,0
538506,0,0
538510,21,0
538514,73,0
538518,0,0
538522,0,0
538526,1,0
538530,86,0
538534,0,0
538538,0,0
538542,0,0
538546,92,0
538550,0,0
538554,0,0
538558,0,0
538562,47,0
538566,0,0
538570,0,0
538574,0,0
538578,4,0
538582,0,0
538586,0,0
538590,0,0
538594,4,0
538598,38,0
538602,0,0
538606,0,0
538610,56,0
538614,115,0
538618,0,0
538622,0,0
538626,16,0
538630,107,0
538634,0,0
538638,0,0
538642,0,0
538646,114,0
538650,14,0
538654,0,0
538658,0,0
538662,136,0
538666,102,0
538670,0,0
538674,0,0
538678,161,0
538682,178,0
538686,0,0
538690,0,0
538694,122,0
538698,183,0
538702,0,0
538706,0,0
538710,85,0
538714,171,0
538718,0,0
538722,0,0
538726,40,0
538730,146,0
538734,0,0
538738,0,0
538742,1,0
538746,137,0
538750,7,0
538754,0,0
538758,0,0
538762,140,0
538766,68,0
538770,0,0
538774,0,0
538778,111,0
538782,101,0
538786,0,0
538790,0,0
538794,63,0
538798,108,0
538802,0,0
538806,0,0
538810,33,0
538814,127,0
538818,0,0
538822,0,0
538826,2,0
538830,120,0
538834,0,0
538838,0,0
538842,23,0
538846,137,0
538850,0,0
538854,0,0
538858,0,0
538862,67,0
538866,5,0
538870,0,0
538874,0,0
538878,57,0
538882,29,0
538886,0,0
538890,0,0
538894,60,0
538898,73,0
538902,0,0
538906,0,0
538910,32,0
538914,81,0
538918,0,0
538922,0,0
538926,0,0
538930,35,0
538934,0,0
538938,0,0
538942,0,0
538946,0,0
538950,0,0
538954,0,0
538958,0,0
538962,0,0
538966,0,0
538970,0,0
538974,0,0
538978,0,0
538982,0,0
538986,0,0
538990,0,0
538994,0,0
538998,0,0
539002,0,0
539006,0,0
539010,0,0
539014,0,0
539018,0,0
539022,0,0
539026,76,0
539030,205,0
539034,55,0
539038,0,0
539042,39,0
539046,210,0
539050,83,0
539054,0,0
539058,12,0
539062,203,0
539066,147,0
539070,0,0
539074,0,0
539078,218,0
539082,234,0
539086,0,0
539090,10,0
539094,292,0
539098,353,0
539102,121,0
539106,87,0
539110,340,0
539114,436,0
539118,258,0
539122,175,0
539126,401,0
539130,600,0
539134,529,0
539138,363,0
539142,480,0
539146,762,0
539150,753,0
539154,592,0
539158,698,0
539162,920,0
539166,858,0
539170,622,0
539174,630,0
539178,903,0
539182,846,0
539186,614,0
539190,577,0
539194,786,0
539198,824,0
539202,605,0
539206,511,0
539210,691,0
539214,758,0
539218,495,0
539222,354,0
539226,490,0
539230,587,0
539234,395,0
539238,204,0
539242,349,0
539246,466,0
539250,315,0
539254,112,0
539258,205,0
539262,351,0
539266,280,0
539270,51,0
539274,77,0
539278,244,0
539282,196,0
539286,0,0
539290,0,0
539294,0,0
539298,0,0
539302,0,0
539306,0,0
539310,0,0
539314,0,0
539318,0,0
539322,0,0
539326,0,0
539330,0,0
539334,0,0
539338,0,0
539342,0,0
539346,40,0
539350,0,0
539354,0,0
539358,0,0
539362,36,0
539366,0,0
539370,0,0
539374,0,0
539378,72,0
539382,0,0
539386,0,0
539390,0,0
539394,5,0
539398,8,0
539402,0,0
539406,0,0
539410,0,0
539414,0,0
539418,0,0
539422,0,0
539426,0,0
539430,45,0
539434,0,0
539438,0,0
539442,3,0
539446,73,0
539450,0,0
539454,0,0
539458,13,0
539462,94,0
539466,0,0
539470,0,0
539474,0,0
539478,76,0
539482,11,0
539486,0,0
539490,0,0
539494,71,0
539498,9,0
539502,0,0
539506,0,0
539510,51,0
539514,32,0
539518,0,0
539522,0,0
539526,16,0
539530,95,0
539534,0,0
539538,0,0
539542,0,0
539546,113,0
539550,0,0
539554,0,0
539558,0,0
539562,90,0
539566,0,0
539570,0,0
539574,0,0
539578,5,0
539582,0,0
539586,0,0
539590,0,0
539594,93,0
539598,75,0
539602,0,0
539606,0,0
539610,92,0
539614,128,0
539618,0,0
539622,0,0
539626,78,0
539630,149,0
539634,0,0
539638,0,0
539642,37,0
539646,144,0
539650,0,0
539654,0,0
539658,0,0
539662,112,0
539666,0,0
539670,0,0
539674,14,0
539678,107,0
539682,17,0
539686,0,0
539690,0,0
539694,114,0
539698,74,0
539702,0,0
539706,0,0
539710,111,0
539714,122,0
539718,0,0
539722,0,0
539726,89,0
539730,167,0
539734,0,0
539738,0,0
539742,95,0
539746,245,0
539750,108,0
539754,0,0
539758,25,0
539762,180,0
539766,26,0
539770,0,0
539774,0,0
539778,149,0
539782,59,0
539786,0,0
539790,0,0
539794,88,0
539798,46,0
539802,0,0
539806,0,0
539810,63,0
539814,83,0
539818,0,0
539822,0,0
539826,28,0
539830,110,0
539834,0,0
539838,0,0
539842,55,0
539846,156,0
539850,1,0
539854,0,0
539858,72,0
539862,242,0
539866,111,0
539870,0,0
539874,81,0
539878,313,0
539882,277,0
539886,39,0
539890,104,0
539894,366,0
539898,388,0
539902,106,0
539906,101,0
539910,356,0
539914,429,0
539918,139,0
539922,52,0
539926,298,0
539930,389,0
539934,109,0
539938,0,0
539942,171,0
539946,312,0
539950,131,0
539954,0,0
539958,172,0
539962,340,0
539966,210,0
539970,19,0
539974,146,0
539978,289,0
539982,196,0
539986,0,0
539990,2,0
539994,187,0
539998,182,0
540002,0,0
540006,0,0
540010,208,0
540014,314,0
540018,24,0
540022,0,0
540026,184,0
540030,280,0
540034,0,0
540038,0,0
540042,31,0
540046,144,0
540050,0,0
540054,0,0
540058,45,0
540062,157,0
540066,0,0
540070,0,0
540074,0,0
540078,121,0
540082,2,0
540086,0,0
540090,0,0
540094,161,0
540098,91,0
540102,0,0
540106,0,0
540110,129,0
540114,152,0
540118,0,0
540122,0,0
540126,117,0
540130,218,0
540134,19,0
540138,0,0
540142,111,0
540146,222,0
540150,0,0
540154,0,0
540158,14,0
540162,193,0
540166,120,0
540170,0,0
540174,63,0
540178,263,0
540182,120,0
540186,0,0
540190,0,0
540194,233,0
540198,156,0
540202,0,0
540206,0,0
540210,177,0
540214,163,0
540218,0,0
540222,0,0
540226,102,0
540230,173,0
540234,0,0
540238,0,0
540242,62,0
540246,159,0
540250,0,0
540254,0,0
540258,18,0
540262,169,0
540266,0,0
540270,0,0
540274,0,0
540278,151,0
540282,2,0
540286,0,0
540290,0,0
540294,113,0
540298,27,0
540302,0,0
540306,0,0
540310,88,0
540314,22,0
540318,0,0
540322,0,0
540326,74,0
540330,85,0
540334,0,0
540338,0,0
540342,37,0
540346,90,0
540350,0,0
540354,0,0
540358,9,0
540362,138,0
540366,0,0
540370,0,0
540374,0,0
540378,141,0
540382,3,0
540386,0,0
540390,0,0
540394,157,0
540398,79,0
540402,0,0
540406,0,0
540410,149,0
540414,135,0
540418,0,0
540422,0,0
540426,118,0
540430,148,0
540434,0,0
540438,0,0
540442,74,0
540446,123,0
540450,0,0
540454,0,0
540458,18,0
540462,122,0
540466,0,0
540470,0,0
540474,0,0
540478,128,0
540482,0,0
540486,0,0
540490,0,0
540494,121,0
540498,46,0
540502,0,0
540506,0,0
540510,110,0
540514,82,0
540518,0,0
540522,0,0
540526,90,0
540530,112,0
540534,0,0
540538,0,0
540542,63,0
540546,108,0
540550,0,0
540554,0,0
540558,0,0
540562,20,0
540566,0,0
540570,0,0
540574,0,0
540578,39,0
540582,0,0
540586,0,0
540590,0,0
540594,0,0
540598,0,0
540602,0,0
540606,0,0
540610,48,0
540614,9,0
540618,0,0
540622,0,0
540626,7,0
540630,1,0
540634,0,0
540638,0,0
540642,0,0
540646,0,0
540650,0,0
540654,0,0
540658,5,0
540662,0,0
540666,0,0
540670,0,0
540674,6,0
540678,154,0
540682,0,0
540686,0,0
540690,11,0
540694,64,0
540698,0,0
540702,0,0
540706,0,0
540710,88,0
540714,2,0
540718,0,0
540722,0,0
540726,143,0
540730,163,0
540734,0,0
540738,23,0
540742,141,0
540746,276,0
540750,36,0
540754,0,0
540758,205,0
540762,588,0
540766,545,0
540770,390,0
540774,714,0
540778,1006,0
540782,784,0
540786,500,0
540790,681,0
540794,963,0
540798,800,0
540802,460,0
540806,600,0
540810,903,0
540814,851,0
540818,479,0
540822,509,0
540826,782,0
540830,793,0
540834,412,0
540838,328,0
540842,562,0
540846,606,0
540850,274,0
540854,95,0
540858,292,0
540862,431,0
540866,129,0
540870,0,0
540874,64,0
540878,246,0
540882,0,0
540886,0,0
540890,0,0
540894,192,0
540898,11,0
540902,0,0
540906,0,0
540910,193,0
540914,86,0
540918,0,0
540922,0,0
540926,180,0
540930,132,0
540934,0,0
540938,0,0
540942,124,0
540946,138,0
540950,0,0
540954,0,0
540958,40,0
540962,125,0
540966,0,0
540970,0,0
540974,0,0
541140,62,0
541142,224,0
541146,275,0
541150,0,0
541154,0,0
541158,208,0
541162,290,0
541166,0,0
541170,0,0
541174,155,0
541178,290,0
541182,0,0
541186,0,0
541190,100,0
541194,251,0
541198,2,0
541202,0,0
541206,42,0
541210,218,0
541214,75,0
541218,0,0
541222,0,0
541226,193,0
541230,156,0
541234,0,0
541238,0,0
541242,149,0
541246,230,0
541250,0,0
541254,0,0
541258,178,0
541262,283,0
541266,0,0
541270,0,0
541274,167,0
541278,337,0
541282,7,0
541286,0,0
541290,121,0
541294,314,0
541298,22,0
541302,0,0
541306,43,0
541310,273,0
541314,93,0
541318,0,0
541322,1,0
541326,237,0
541330,166,0
541334,0,0
541338,0,0
541342,198,0
541346,231,0
541350,0,0
541354,0,0
541358,155,0
541362,258,0
541366,0,0
541370,0,0
541374,113,0
541378,292,0
541382,0,0
541386,0,0
541390,107,0
541394,305,0
541398,0,0
541402,0,0
541406,20,0
541410,289,0
541414,62,0
541418,0,0
541422,0,0
541426,287,0
541430,133,0
541434,0,0
541438,0,0
541442,208,0
541446,166,0
541450,0,0
541454,0,0
541458,151,0
541462,184,0
541466,0,0
541470,12,0
541474,142,0
541478,256,0
541482,0,0
541486,0,0
541490,54,0
541494,269,0
541498,0,0
541502,0,0
541506,0,0
541510,289,0
541514,79,0
541518,0,0
541522,4,0
541526,309,0
541530,166,0
541534,0,0
541538,0,0
541542,266,0
541546,207,0
541550,0,0
541554,0,0
541558,229,0
541562,223,0
541566,0,0
541570,0,0
541574,196,0
541578,270,0
541582,0,0
541586,0,0
541590,78,0
541594,290,0
541598,19,0
541602,0,0
541606,19,0
541610,301,0
541614,126,0
541618,0,0
541622,0,0
541626,324,0
541630,231,0
541634,0,0
541638,0,0
541642,302,0
541646,287,0
541650,0,0
541654,0,0
541658,256,0
541662,274,0
541666,0,0
541670,0,0
541674,230,0
541678,347,0
541682,0,0
541686,0,0
541690,171,0
541694,326,0
541698,4,0
541702,0,0
541706,83,0
541710,316,0
541714,118,0
541718,0,0
541722,6,0
541726,308,0
541730,238,0
541734,0,0
541738,0,0
541742,297,0
541746,308,0
541750,0,0
541754,0,0
541758,262,0
541762,319,0
541766,0,0
541770,0,0
541774,251,0
541778,373,0
541782,0,0
541786,0,0
541790,199,0
541794,387,0
541798,0,0
541802,0,0
541806,137,0
541810,330,0
541814,34,0
541818,0,0
541822,58,0
541826,325,0
541830,135,0
541834,0,0
541838,0,0
541842,313,0
541846,255,0
541850,0,0
541854,0,0
541858,271,0
541862,328,0
541866,0,0
541870,0,0
541874,258,0
541878,401,0
541882,0,0
541886,0,0
541890,242,0
541894,477,0
541898,0,0
541902,0,0
541906,242,0
541910,545,0
541914,132,0
541918,0,0
541922,184,0
541926,574,0
541930,290,0
541934,0,0
541938,115,0
541942,519,0
541946,378,0
541950,0,0
541954,26,0
541958,443,0
541962,400,0
541966,0,0
541970,0,0
541974,393,0
541978,519,0
541982,8,0
541986,0,0
541990,304,0
541994,551,0
541998,34,0
542002,0,0
542006,219,0
542010,572,0
542014,91,0
542018,0,0
542022,149,0
542026,571,0
542030,208,0
542034,0,0
542038,73,0
542042,552,0
542046,324,0
542050,0,0
542054,5,0
542058,500,0
542062,396,0
542066,0,0
542070,2,0
542074,401,0
542078,468,0
542082,0,0
542086,0,0
542090,320,0
542094,538,0
542098,101,0
542102,0,0
542106,242,0
542110,593,0
542114,213,0
542118,0,0
542122,105,0
542126,591,0
542130,353,0
542134,0,0
542138,51,0
542142,563,0
542146,510,0
542150,0,0
542154,111,0
542158,666,0
542162,736,0
542166,288,0
542170,300,0
542174,712,0
542178,859,0
542182,557,0
542186,269,0
542190,664,0
542194,874,0
542198,588,0
542202,202,0
542206,437,0
542210,659,0
542214,444,0
542218,8,0
542222,113,0
542226,449,0
542230,409,0
542234,0,0
542238,0,0
542242,1,0
542246,99,0
542250,0,0
542254,0,0
542258,0,0
542262,104,0
542266,134,0
542270,29,0
542274,0,0
542278,4,0
542282,191,0
542286,88,0
542290,0,0
542294,0,0
542298,163,0
542302,93,0
542306,0,0
542310,0,0
542314,149,0
542318,131,0
542322,17,0
542326,0,0
542330,271,0
542334,223,0
542338,168,0
542342,373,0
542346,904,0
542350,969,0
542354,1083,0
542358,1678,0
542362,2338,1
542366,2049,1
542370,1702,0
542374,1787,0
542378,1862,1
542382,1405,0
542386,971,0
542390,1167,0
542394,1305,0
542398,889,0
542402,467,0
542406,680,0
542410,812,0
542414,522,0
542418,159,0
542422,249,0
542426,421,0
542430,275,0
542434,0,0
542438,22,0
542442,211,0
542446,185,0
542450,0,0
542454,0,0
542458,81,0
542462,175,0
542466,0,0
542470,0,0
542474,7,0
542478,141,0
542482,0,0
542486,0,0
542490,16,0
542494,194,0
542498,0,0
542502,0,0
542506,24,0
542510,197,0
542514,0,0
542518,0,0
542522,0,0
542526,188,0
542530,24,0
542534,0,0
542538,0,0
542542,146,0
542546,62,0
542550,0,0
542554,0,0
542558,81,0
542562,111,0
542566,0,0
542570,0,0
542574,15,0
542578,106,0
542582,0,0
542586,0,0
542590,8,0
542594,177,0
542598,0,0
542602,0,0
542606,0,0
542610,197,0
542614,0,0
542618,0,0
542622,0,0
542626,163,0
542630,37,0
542634,0,0
542638,0,0
542642,156,0
542646,92,0
542650,0,0
542654,0,0
542658,119,0
542662,123,0
542666,0,0
542670,0,0
542674,29,0
542678,83,0
542682,0,0
542686,0,0
542690,5,0
542694,132,0
542698,0,0
542702,0,0
542706,0,0
542710,130,0
542714,0,0
542718,0,0
542722,0,0
542726,50,0
542730,6,0
542734,0,0
542738,0,0
542742,70,0
542746,80,0
542750,0,0
542754,0,0
542758,67,0
542762,94,0
542766,0,0
542770,0,0
542774,54,0
542778,79,0
542782,0,0
542786,0,0
542790,70,0
542794,110,0
542798,0,0
542802,0,0
542806,4,0
542810,103,0
542814,0,0
542818,0,0
542822,0,0
542826,71,0
542830,76,0
542834,0,0
542838,0,0
542842,92,0
542846,130,0
542850,0,0
542854,0,0
542858,47,0
542862,126,0
542866,0,0
542870,0,0
542874,26,0
542878,89,0
542882,0,0
542886,0,0
542890,4,0
542894,56,0
542898,0,0
542902,0,0
542906,4,0
542910,90,0
542914,0,0
542918,0,0
542922,20,0
542926,170,0
542930,55,0
542934,0,0
542938,9,0
542942,330,0
542946,313,0
542950,0,0
542954,0,0
542958,362,0
542962,456,0
542966,0,0
542970,0,0
542974,284,0
542978,407,0
542982,0,0
542986,0,0
542990,185,0
542994,350,0
542998,0,0
543002,0,0
543006,99,0
543010,318,0
543014,0,0
543018,0,0
543022,42,0
543026,227,0
543030,39,0
543034,0,0
543038,23,0
543042,251,0
543046,238,0
543050,3,0
543054,122,0
543058,425,0
543062,502,0
543066,95,0
543070,23,0
543074,353,0
543078,497,0
543082,114,0
543086,3,0
543090,252,0
543094,478,0
543098,161,0
543102,0,0
543106,224,0
543110,512,0
543114,168,0
543118,0,0
543122,196,0
543126,530,0
543130,178,0
543134,0,0
543138,72,0
543142,442,0
543146,146,0
543150,0,0
543154,0,0
543158,360,0
543162,204,0
543166,0,0
543170,0,0
543174,271,0
543178,279,0
543182,0,0
543186,0,0
543190,174,0
543194,283,0
543198,0,0
543202,0,0
543206,0,0
543210,5,0
543214,0,0
543218,0,0
543222,0,0
543226,16,0
543230,184,0
543234,36,0
543238,0,0
543242,50,0
543246,359,0
543250,295,0
543254,148,0
543258,186,0
543262,468,0
543266,452,0
543270,343,0
543274,220,0
543278,442,0
543282,580,0
543286,477,0
543290,284,0
543294,434,0
543298,698,0
543302,484,0
543306,250,0
543310,347,0
543314,591,0
543318,401,0
543322,76,0
543326,28,0
543330,330,0
543334,175,0
543338,0,0
543342,0,0
543346,99,0
543350,0,0
543354,0,0
543358,0,0
543362,33,0
543366,0,0
543370,0,0
543374,0,0
543378,4,0
543382,64,0
543386,0,0
543390,0,0
543394,0,0
543398,153,0
543402,0,0
543406,0,0
543410,0,0
543414,199,0
543418,84,0
543422,0,0
543426,0,0
543430,202,0
543434,190,0
543438,0,0
543442,0,0
543446,210,0
543450,281,0
543454,0,0
543458,0,0
543462,227,0
543466,330,0
543470,0,0
543474,0,0
543478,162,0
543482,341,0
543486,38,0
543490,0,0
543494,33,0
543498,358,0
543502,116,0
543506,0,0
543510,19,0
543514,359,0
543518,180,0
543522,0,0
543526,0,0
543530,259,0
543534,283,0
543538,0,0
543542,0,0
543546,255,0
543550,317,0
543554,16,0
543558,0,0
543562,248,0
543566,362,0
543570,24,0
543574,0,0
543578,188,0
543582,412,0
543586,40,0
543590,0,0
543594,51,0
543598,445,0
543602,123,0
543606,0,0
543610,18,0
543614,384,0
543618,136,0
543622,0,0
543626,2,0
543630,282,0
543634,197,0
543638,0,0
543642,0,0
543646,249,0
543650,260,0
543654,0,0
543658,0,0
543662,202,0
543666,310,0
543670,0,0
543674,0,0
543678,131,0
543682,386,0
543686,48,0
543690,0,0
543694,4,0
543698,423,0
543702,151,0
543706,0,0
543710,4,0
543714,412,0
543718,166,0
543722,0,0
543726,0,0
543730,333,0
543734,191,0
543738,0,0
543742,0,0
543746,344,0
543750,299,0
543754,0,0
543758,0,0
543762,253,0
543766,307,0
543770,0,0
543774,0,0
543778,166,0
543782,377,0
543786,68,0
543790,0,0
543794,20,0
543798,444,0
543802,211,0
543806,0,0
543810,0,0
543814,472,0
543818,236,0
543822,0,0
543826,0,0
543830,371,0
543834,292,0
543838,0,0
543842,0,0
543846,383,0
543850,307,0
543854,0,0
543858,0,0
543862,283,0
543866,310,0
543870,0,0
543874,0,0
543878,223,0
543882,350,0
543886,20,0
543890,0,0
543894,59,0
543898,405,0
543902,143,0
543906,0,0
543910,0,0
543914,429,0
543918,219,0
543922,0,0
543926,0,0
543930,356,0
543934,318,0
543938,0,0
543942,0,0
543946,364,0
543950,385,0
543954,0,0
543958,0,0
543962,333,0
543966,443,0
543970,0,0
543974,0,0
543978,269,0
543982,487,0
543986,0,0
543990,0,0
543994,146,0
543998,516,0
544002,156,0
544006,0,0
544010,45,0
544014,525,0
544018,195,0
544022,0,0
544026,13,0
544030,436,0
544034,346,0
544038,0,0
544042,0,0
544046,456,0
544050,485,0
544054,0,0
544058,0,0
544062,374,0
544066,558,0
544070,0,0
544074,0,0
544078,327,0
544082,639,0
544086,53,0
544090,0,0
544094,228,0
544098,708,0
544102,220,0
544106,0,0
544110,111,0
544114,714,0
544118,293,0
544122,0,0
544126,63,0
544130,648,0
544134,397,0
544138,0,0
544142,1,0
544146,570,0
544150,496,0
544154,0,0
544158,0,0
544162,465,0
544166,577,0
544170,22,0
544174,0,0
544178,375,0
544182,672,0
544186,109,0
544190,0,0
544194,201,0
544198,709,0
544202,264,0
544206,0,0
544210,60,0
544214,739,0
544218,332,0
544222,0,0
544226,46,0
544230,702,0
544234,384,0
544238,0,0
544242,3,0
544246,569,0
544250,446,0
544254,0,0
544258,0,0
544262,449,0
544266,489,0
544270,0,0
544274,0,0
544278,324,0
544282,495,0
544286,72,0
544290,0,0
544294,195,0
544298,640,0
544302,306,0
544306,0,0
544310,34,0
544314,698,0
544318,331,0
544322,0,0
544326,0,0
544330,678,0
544334,446,0
544338,0,0
544342,12,0
544346,587,0
544350,514,0
544354,0,0
544358,0,0
544362,513,0
544366,556,0
544370,0,0
544374,0,0
544378,414,0
544382,608,0
544386,39,0
544390,0,0
544394,259,0
544398,652,0
544402,247,0
544406,0,0
544410,44,0
544414,678,0
544418,393,0
544422,0,0
544426,0,0
544430,656,0
544434,475,0
544438,0,0
544442,0,0
544446,573,0
544450,577,0
544454,0,0
544458,0,0
544462,539,0
544466,647,0
544470,0,0
544474,0,0
544478,447,0
544482,619,0
544486,8,0
544490,0,0
544494,337,0
544498,663,0
544502,158,0
544506,0,0
544510,144,0
544514,665,0
544518,286,0
544522,0,0
544526,39,0
544530,631,0
544534,378,0
544538,0,0
544542,0,0
544546,537,0
544550,491,0
544554,0,0
544558,0,0
544562,456,0
544566,591,0
544570,0,0
544574,0,0
544578,401,0
544582,665,0
544586,28,0
544590,0,0
544594,344,0
544598,739,0
544602,160,0
544606,0,0
544610,154,0
544614,784,0
544618,346,0
544622,0,0
544626,96,0
544630,766,0
544634,458,0
544638,0,0
544642,15,0
544646,632,0
544650,571,0
544654,0,0
544658,0,0
544662,610,0
544666,748,0
544670,86,0
544674,0,0
544678,497,0
544682,774,0
544686,132,0
544690,0,0
544694,320,0
544698,859,0
544702,309,0
544706,0,0
544710,103,0
544714,886,0
544718,460,0
544722,0,0
544726,40,0
544730,837,0
544734,480,0
544738,0,0
544742,1,0
544746,727,0
544750,598,0
544754,0,0
544758,0,0
544762,653,0
544766,692,0
544770,0,0
544774,0,0
544778,492,0
544782,703,0
544786,68,0
544790,0,0
544794,356,0
544798,775,0
544802,225,0
544806,0,0
544810,121,0
544814,847,0
544818,468,0
544822,0,0
544826,3,0
544830,864,0
544834,553,0
544838,0,0
544842,0,0
544846,745,0
544850,670,0
544854,0,0
544858,0,0
544862,698,0
544866,713,0
544870,0,0
544874,0,0
544878,599,0
544882,742,0
544886,0,0
544890,0,0
544894,450,0
544898,785,0
544902,147,0
544906,0,0
544910,188,0
544914,819,0
544918,431,0
544922,0,0
544926,19,0
544930,804,0
544934,559,0
544938,0,0
544942,0,0
544946,682,0
544950,663,0
544954,0,0
544958,0,0
544962,690,0
544966,776,0
544970,0,0
544974,0,0
544978,592,0
544982,823,0
544986,0,0
544990,0,0
544994,451,0
544998,842,0
545002,125,0
545006,0,0
545010,272,0
545014,834,0
545018,350,0
545022,0,0
545026,113,0
545030,834,0
545034,465,0
545038,0,0
545042,16,0
545046,686,0
545050,637,0
545054,0,0
545058,0,0
545062,650,0
545066,784,0
545070,0,0
545074,0,0
545078,582,0
545082,884,0
545086,96,0
545090,0,0
545094,511,0
545098,944,0
545102,244,0
545106,0,0
545110,340,0
545114,1011,0
545118,414,0
545122,0,0
545126,164,0
545130,967,0
545134,469,0
545138,0,0
545142,58,0
545146,742,0
545150,569,0
545154,0,0
545158,7,0
545162,654,0
545166,659,0
545170,6,0
545174,0,0
545178,518,0
545182,729,0
545186,18,0
545190,0,0
545194,379,0
545198,827,0
545202,167,0
545206,0,0
545210,201,0
545214,903,0
545218,395,0
545222,0,0
545226,44,0
545230,903,0
545234,468,0
545238,0,0
545242,32,0
545246,848,0
545250,562,0
545254,0,0
545258,0,0
545262,795,0
545266,702,0
545270,0,0
545274,0,0
545278,640,0
545282,778,0
545286,62,0
545290,0,0
545294,520,0
545298,864,0
545302,236,0
545306,0,0
545310,337,0
545314,921,0
545318,482,0
545322,0,0
545326,103,0
545330,929,0
545334,591,0
545338,0,0
545342,4,0
545346,908,0
545350,660,0
545354,0,0
545358,0,0
545362,829,0
545366,754,0
545370,0,0
545374,0,0
545378,732,0
545382,892,0
545386,145,0
545390,0,0
545394,738,0
545398,1046,0
545402,343,0
545406,0,0
545410,388,0
545414,790,0
545418,274,0
545422,0,0
545426,54,0
545430,702,0
545434,367,0
545438,0,0
545442,0,0
545446,605,0
545450,434,0
545454,0,0
545458,0,0
545462,538,0
545466,556,0
545470,0,0
545474,0,0
545478,482,0
545482,605,0
545486,0,0
545490,0,0
545494,406,0
545498,639,0
545502,0,0
545506,0,0
545510,308,0
545514,682,0
545518,136,0
545522,0,0
545526,97,0
545530,684,0
545534,266,0
545538,0,0
545542,23,0
545546,624,0
545550,385,0
545554,0,0
545558,0,0
545562,540,0
545566,584,0
545570,0,0
545574,0,0
545578,447,0
545582,618,0
545586,0,0
545590,0,0
545594,402,0
545598,687,0
545602,20,0
545606,0,0
545610,273,0
545614,758,0
545618,191,0
545622,0,0
545626,126,0
545630,772,0
545634,288,0
545638,0,0
545642,58,0
545646,716,0
545650,380,0
545654,0,0
545658,2,0
545662,572,0
545666,467,0
545670,0,0
545674,0,0
545678,484,0
545682,567,0
545686,0,0
545690,0,0
545694,383,0
545698,643,0
545702,63,0
545706,0,0
545710,261,0
545714,718,0
545718,215,0
545722,0,0
545726,90,0
545730,737,0
545734,314,0
545738,0,0
545742,33,0
545746,744,0
545750,386,0
545754,0,0
545758,0,0
545762,641,0
545766,480,0
545770,0,0
545774,0,0
545778,552,0
545782,553,0
545786,0,0
545790,0,0
545794,416,0
545798,600,0
545802,48,0
545806,0,0
545810,302,0
545814,676,0
545818,224,0
545822,0,0
545826,94,0
545830,732,0
545834,386,0
545838,0,0
545842,1,0
545846,766,0
545850,473,0
545854,0,0
545858,0,0
545862,630,0
545866,543,0
545870,0,0
545874,0,0
545878,572,0
545882,578,0
545886,0,0
545890,0,0
545894,504,0
545898,566,0
545902,0,0
545906,0,0
545910,349,0
545914,633,0
545918,139,0
545922,0,0
545926,127,0
545930,695,0
545934,358,0
545938,0,0
545942,0,0
545946,675,0
545950,432,0
545954,0,0
545958,0,0
545962,613,0
545966,562,0
545970,0,0
545974,0,0
545978,551,0
545982,622,0
545986,0,0
545990,0,0
545994,482,0
545998,646,0
546002,0,0
546006,0,0
546010,355,0
546014,678,0
546018,59,0
546022,0,0
546026,186,0
546030,695,0
546034,228,0
546038,0,0
546042,56,0
546046,677,0
546050,300,0
546054,0,0
546058,8,0
546062,540,0
546066,463,0
546070,0,0
546074,0,0
546078,475,0
546082,619,0
546086,16,0
546090,0,0
546094,400,0
546098,644,0
546102,19,0
546106,0,0
546110,330,0
546114,712,0
546118,80,0
546122,0,0
546126,213,0
546130,766,0
546134,268,0
546138,0,0
546142,104,0
546146,747,0
546150,343,0
546154,0,0
546158,19,0
546162,592,0
546166,411,0
546170,0,0
546174,0,0
546178,538,0
546182,529,0
546186,0,0
546190,10,0
546194,449,0
546198,601,0
546202,3,0
546206,0,0
546210,315,0
546214,695,0
546218,151,0
546222,0,0
546226,192,0
546230,763,0
546234,304,0
546238,0,0
546242,44,0
546246,772,0
546250,346,0
546254,0,0
546258,23,0
546262,657,0
546266,417,0
546270,0,0
546274,0,0
546278,599,0
546282,508,0
546286,0,0
546290,0,0
546294,493,0
546298,580,0
546302,0,0
546306,0,0
546310,363,0
546314,658,0
546318,116,0
546322,0,0
546326,183,0
546330,707,0
546334,316,0
546338,0,0
546342,22,0
546346,780,0
546350,397,0
546354,0,0
546358,0,0
546362,692,0
546366,472,0
546370,0,0
546374,10,0
546378,663,0
546382,594,0
546386,0,0
546390,0,0
546394,590,0
546398,629,0
546402,0,0
546406,0,0
546410,464,0
546414,676,0
546418,39,0
546422,0,0
546426,263,0
546430,751,0
546434,302,0
546438,0,0
546442,62,0
546446,762,0
546450,436,0
546454,0,0
546458,0,0
546462,745,0
546466,554,0
546470,0,0
546474,0,0
546478,696,0
546482,655,0
546486,0,0
546490,0,0
546494,597,0
546498,708,0
546502,0,0
546506,0,0
546510,479,0
546514,749,0
546518,6,0
546522,0,0
546526,335,0
546530,763,0
546534,201,0
546538,0,0
546542,132,0
546546,773,0
546550,342,0
546554,0,0
546558,80,0
546562,748,0
546566,495,0
546570,0,0
546574,0,0
546578,627,0
546582,644,0
546586,0,0
546590,0,0
546594,551,0
546598,733,0
546602,5,0
546606,0,0
546610,463,0
546614,802,0
546618,32,0
546622,0,0
546626,346,0
546630,859,0
546634,226,0
546638,0,0
546642,137,0
546646,874,0
546650,329,0
546654,0,0
546658,79,0
546662,773,0
546666,447,0
546670,0,0
546674,21,0
546678,625,0
546682,552,0
546686,0,0
546690,12,0
546694,535,0
546698,642,0
546702,2,0
546706,0,0
546710,443,0
546714,757,0
546718,105,0
546722,0,0
546726,297,0
546730,845,0
546734,294,0
546738,0,0
546742,110,0
546746,864,0
546750,422,0
546754,0,0
546758,38,0
546762,849,0
546766,480,0
546770,0,0
546774,5,0
546778,727,0
546782,581,0
546786,0,0
546790,0,0
546794,602,0
546798,653,0
546802,0,0
546806,0,0
546810,499,0
546814,695,0
546818,58,0
546822,0,0
546826,319,0
546830,726,0
546834,215,0
546838,0,0
546842,94,0
546846,790,0
546850,428,0
546854,0,0
546858,20,0
546862,768,0
546866,508,0
546870,0,0
546874,0,0
546878,702,0
546882,649,0
546886,0,0
546890,0,0
546894,644,0
546898,721,0
546902,0,0
546906,0,0
546910,563,0
546914,750,0
546918,45,0
546922,4,0
546926,435,0
546930,790,0
546934,208,0
546938,0,0
546942,212,0
546946,802,0
546950,381,0
546954,0,0
546958,72,0
546962,779,0
546966,530,0
546970,0,0
546974,0,0
546978,591,0
546982,591,0
546986,0,0
546990,0,0
546994,527,0
546998,683,0
547002,0,0
547006,0,0
547010,465,0
547014,755,0
547018,7,0
547022,0,0
547026,394,0
547030,834,0
547034,172,0
547038,0,0
547042,195,0
547046,872,0
547050,352,0
547054,0,0
547058,104,0
547062,784,0
547066,447,0
547070,0,0
547074,34,0
547078,650,0
547082,558,0
547086,0,0
547090,0,0
547094,581,0
547098,677,0
547102,0,0
547106,0,0
547110,459,0
547114,743,0
547118,68,0
547122,0,0
547126,315,0
547130,801,0
547134,208,0
547138,0,0
547142,123,0
547146,820,0
547150,326,0
547154,0,0
547158,54,0
547162,819,0
547166,356,0
547170,0,0
547174,49,0
547178,620,0
547182,452,0
547186,0,0
547190,0,0
547194,567,0
547198,535,0
547202,0,0
547206,0,0
547210,464,0
547214,583,0
547218,10,0
547222,0,0
547226,318,0
547230,632,0
547234,141,0
547238,0,0
547242,137,0
547246,719,0
547250,350,0
547254,0,0
547258,23,0
547262,747,0
547266,424,0
547270,0,0
547274,0,0
547278,649,0
547282,540,0
547286,0,0
547290,0,0
547294,620,0
547298,603,0
547302,0,0
547306,0,0
547310,539,0
547314,635,0
547318,0,0
547322,0,0
547326,423,0
547330,683,0
547334,108,0
547338,0,0
547342,218,0
547346,735,0
547350,338,0
547354,0,0
547358,40,0
547362,730,0
547366,450,0
547370,0,0
547374,0,0
547378,630,0
547382,558,0
547386,0,0
547390,0,0
547394,605,0
547398,659,0
547402,0,0
547406,0,0
547410,520,0
547414,712,0
547418,0,0
547422,0,0
547426,408,0
547430,720,0
547434,49,0
547438,0,0
547442,249,0
547446,721,0
547450,187,0
547454,0,0
547458,92,0
547462,699,0
547466,328,0
547470,0,0
547474,19,0
547478,554,0
547482,463,0
547486,0,0
547490,0,0
547494,531,0
547498,617,0
547502,0,0
547506,0,0
547510,457,0
547514,661,0
547518,6,0
547522,0,0
547526,374,0
547530,727,0
547534,62,0
547538,0,0
547542,243,0
547546,780,0
547550,246,0
547554,0,0
547558,104,0
547562,754,0
547566,308,0
547570,0,0
547574,48,0
547578,594,0
547582,398,0
547586,0,0
547590,2,0
547594,561,0
547598,523,0
547602,0,0
547606,0,0
547610,446,0
547614,584,0
547618,11,0
547622,0,0
547626,336,0
547630,683,0
547634,93,0
547638,0,0
547642,199,0
547646,750,0
547650,252,0
547654,0,0
547658,62,0
547662,769,0
547666,309,0
547670,0,0
547674,22,0
547678,691,0
547682,384,0
547686,0,0
547690,27,0
547694,620,0
547698,492,0
547702,0,0
547706,0,0
547710,509,0
547714,555,0
547718,0,0
547722,0,0
547726,361,0
547730,639,0
547734,80,0
547738,0,0
547742,248,0
547746,681,0
547750,284,0
547754,0,0
547758,30,0
547762,763,0
547766,374,0
547770,0,0
547774,0,0
547778,747,0
547782,398,0
547786,0,0
547790,0,0
547794,650,0
547798,535,0
547802,0,0
547806,0,0
547810,550,0
547814,556,0
547818,0,0
547822,0,0
547826,436,0
547830,618,0
547834,19,0
547838,0,0
547842,277,0
547846,679,0
547850,231,0
547854,0,0
547858,61,0
547862,692,0
547866,361,0
547870,0,0
547874,0,0
547878,682,0
547882,481,0
547886,0,0
547890,0,0
547894,605,0
547898,587,0
547902,0,0
547906,0,0
547910,558,0
547914,668,0
547918,0,0
547922,0,0
547926,453,0
547930,716,0
547934,8,0
547938,0,0
547942,329,0
547946,728,0
547950,193,0
547954,0,0
547958,142,0
547962,726,0
547966,300,0
547970,0,0
547974,68,0
547978,672,0
547982,419,0
547986,0,0
547990,0,0
547994,581,0
547998,575,0
548002,0,0
548006,0,0
548010,499,0
548014,659,0
548018,0,0
548022,0,0
548026,407,0
548030,713,0
548034,38,0
548038,0,0
548042,321,0
548046,793,0
548050,186,0
548054,0,0
548058,134,0
548062,796,0
548066,304,0
548070,0,0
548074,64,0
548078,691,0
548082,396,0
548086,0,0
548090,20,0
548094,591,0
548098,476,0
548102,0,0
548106,0,0
548110,494,0
548114,558,0
548118,0,0
548122,0,0
548126,396,0
548130,662,0
548134,73,0
548138,0,0
548142,265,0
548146,746,0
548150,251,0
548154,0,0
548158,63,0
548162,779,0
548166,360,0
548170,0,0
548174,25,0
548178,742,0
548182,395,0
548186,0,0
548190,0,0
548194,652,0
548198,481,0
548202,0,0
548206,0,0
548210,575,0
548214,567,0
548218,0,0
548222,0,0
548226,434,0
548230,604,0
548234,41,0
548238,0,0
548242,298,0
548246,650,0
548250,213,0
548254,0,0
548258,89,0
548262,704,0
548266,344,0
548270,0,0
548274,13,0
548278,691,0
548282,431,0
548286,0,0
548290,0,0
548294,621,0
548298,512,0
548302,0,0
548306,0,0
548310,556,0
548314,540,0
548318,0,0
548322,0,0
548326,497,0
548330,568,0
548334,0,0
548338,0,0
548342,366,0
548346,622,0
548350,101,0
548354,0,0
548358,142,0
548362,667,0
548366,290,0
548370,0,0
548374,43,0
548378,645,0
548382,383,0
548386,0,0
548390,0,0
548394,531,0
548398,505,0
548402,0,0
548406,0,0
548410,522,0
548414,595,0
548418,0,0
548422,0,0
548426,468,0
548430,634,0
548434,0,0
548438,0,0
548442,370,0
548446,686,0
548450,85,0
548454,0,0
548458,187,0
548462,690,0
548466,230,0
548470,0,0
548474,83,0
548478,634,0
548482,295,0
548486,0,0
548490,21,0
548494,522,0
548498,426,0
548502,0,0
548506,0,0
548510,469,0
548514,542,0
548518,0,0
548522,0,0
548526,393,0
548530,610,0
548534,13,0
548538,0,0
548542,321,0
548546,679,0
548550,94,0
548554,0,0
548558,174,0
548562,717,0
548566,246,0
548570,0,0
548574,99,0
548578,721,0
548582,295,0
548586,0,0
548590,21,0
548594,565,0
548598,379,0
548602,0,0
548606,0,0
548610,504,0
548614,471,0
548618,0,0
548622,0,0
548626,410,0
548630,537,0
548634,4,0
548638,0,0
548642,299,0
548646,620,0
548650,113,0
548654,0,0
548658,132,0
548662,692,0
548666,299,0
548670,0,0
548674,20,0
548678,700,0
548682,334,0
548686,0,0
548690,12,0
548694,599,0
548698,399,0
548702,0,0
548706,0,0
548710,573,0
548714,471,0
548718,0,0
548722,0,0
548726,465,0
548730,523,0
548734,0,0
548738,0,0
548742,356,0
548746,576,0
548750,85,0
548754,0,0
548758,154,0
548762,631,0
548766,279,0
548770,0,0
548774,26,0
548778,658,0
548782,349,0
548786,0,0
548790,0,0
548794,573,0
548798,450,0
548802,0,0
548806,0,0
548810,570,0
548814,526,0
548818,0,0
548822,0,0
548826,495,0
548830,566,0
548834,0,0
548838,0,0
548842,391,0
548846,581,0
548850,3,0
548854,0,0
548858,229,0
548862,631,0
548866,203,0
548870,0,0
548874,76,0
548878,638,0
548882,304,0
548886,0,0
548890,0,0
548894,502,0
548898,428,0
548902,0,0
548906,0,0
548910,517,0
548914,534,0
548918,0,0
548922,0,0
548926,461,0
548930,579,0
548934,0,0
548938,0,0
548942,391,0
548946,626,0
548950,8,0
548954,0,0
548958,244,0
548962,667,0
548966,189,0
548970,0,0
548974,109,0
548978,655,0
548982,252,0
548986,0,0
548990,33,0
548994,522,0
548998,370,0
549002,0,0
549006,0,0
549010,508,0
549014,485,0
549018,0,0
549022,0,0
549026,412,0
549030,569,0
549034,0,0
549038,0,0
549042,347,0
549046,632,0
549050,40,0
549054,0,0
549058,229,0
549062,684,0
549066,186,0
549070,0,0
549074,92,0
549078,712,0
549082,256,0
549086,0,0
549090,38,0
549094,612,0
549098,319,0
549102,0,0
549106,2,0
549110,518,0
549114,417,0
549118,0,0
549122,0,0
549126,425,0
549130,517,0
549134,0,0
549138,0,0
549142,328,0
549146,597,0
549150,52,0
549154,0,0
549158,195,0
549162,675,0
549166,235,0
549170,0,0
549174,71,0
549178,715,0
549182,273,0
549186,0,0
549190,41,0
549194,679,0
549198,335,0
549202,0,0
549206,0,0
549210,587,0
549214,411,0
549218,0,0
549222,0,0
549226,457,0
549230,467,0
549234,0,0
549238,0,0
549242,351,0
549246,540,0
549250,40,0
549254,0,0
549258,213,0
549262,623,0
549266,226,0
549270,0,0
549274,43,0
549278,680,0
549282,313,0
549286,0,0
549290,1,0
549294,672,0
549298,408,0
549302,0,0
549306,0,0
549310,580,0
549314,450,0
549318,0,0
549322,0,0
549326,492,0
549330,493,0
549334,0,0
549338,0,0
549342,422,0
549346,545,0
549350,5,0
549354,0,0
549358,270,0
549362,597,0
549366,193,0
549370,0,0
549374,65,0
549378,623,0
549382,308,0
549386,0,0
549390,0,0
549394,581,0
549398,383,0
549402,0,0
549406,0,0
549410,532,0
549414,478,0
549418,0,0
549422,0,0
549426,500,0
549430,545,0
549434,0,0
549438,0,0
549442,424,0
549446,570,0
549450,0,0
549454,0,0
549458,327,0
549462,609,0
549466,96,0
549470,0,0
549474,170,0
549478,637,0
549482,251,0
549486,0,0
549490,24,0
549494,594,0
549498,349,0
549502,0,0
549506,0,0
549510,494,0
549514,472,0
549518,0,0
549522,0,0
549526,438,0
549530,553,0
549534,0,0
549538,0,0
549542,403,0
549546,601,0
549550,7,0
549554,0,0
549558,318,0
549562,663,0
549566,115,0
549570,0,0
549574,141,0
549578,664,0
549582,222,0
549586,0,0
549590,82,0
549594,605,0
549598,293,0
549602,0,0
549606,18,0
549610,500,0
549614,403,0
549618,0,0
549622,0,0
549626,438,0
549630,506,0
549634,0,0
549638,0,0
549642,362,0
549646,593,0
549650,31,0
549654,0,0
549658,251,0
549662,655,0
549666,148,0
549670,0,0
549674,102,0
549678,696,0
549682,253,0
549686,0,0
549690,51,0
549694,670,0
549698,305,0
549702,0,0
549706,5,0
549710,576,0
549714,415,0
549718,0,0
549722,0,0
549726,493,0
549730,453,0
549734,0,0
549738,0,0
549742,389,0
549746,502,0
549750,5,0
549754,0,0
549758,269,0
549762,579,0
549766,158,0
549770,0,0
549774,129,0
549778,640,0
549782,288,0
549786,0,0
549790,1,0
549794,655,0
549798,360,0
549802,0,0
549806,17,0
549810,571,0
549814,444,0
549818,0,0
549822,0,0
549826,531,0
549830,482,0
549834,0,0
549838,0,0
549842,468,0
549846,510,0
549850,0,0
549854,0,0
549858,337,0
549862,571,0
549866,80,0
549870,0,0
549874,134,0
549878,595,0
549882,283,0
549886,0,0
549890,30,0
549894,595,0
549898,359,0
549902,0,0
549906,0,0
549910,505,0
549914,446,0
549918,0,0
549922,0,0
549926,513,0
549930,523,0
549934,0,0
549938,0,0
549942,457,0
549946,570,0
549950,0,0
549954,0,0
549958,354,0
549962,617,0
549966,46,0
549970,0,0
549974,185,0
549978,622,0
549982,198,0
549986,0,0
549990,103,0
549994,610,0
549998,259,0
550002,0,0
550006,25,0
550010,489,0
550014,400,0
550018,0,0
550022,0,0
550026,454,0
550030,519,0
550034,0,0
550038,0,0
550042,382,0
550046,564,0
550050,7,0
550054,0,0
550058,326,0
550062,642,0
550066,65,0
550070,0,0
550074,135,0
550078,673,0
550082,197,0
550086,0,0
550090,86,0
550094,678,0
550098,266,0
550102,0,0
550106,43,0
550110,522,0
550114,340,0
550118,0,0
550122,1,0
550126,473,0
550130,417,0
550134,0,0
550138,0,0
550142,396,0
550146,512,0
550150,0,0
550154,0,0
550158,288,0
550162,618,0
550166,107,0
550170,0,0
550174,129,0
550178,672,0
550182,271,0
550186,0,0
550190,38,0
550194,693,0
550198,292,0
550202,0,0
550206,8,0
550210,589,0
550214,351,0
550218,0,0
550222,0,0
550226,554,0
550230,463,0
550234,0,0
550238,0,0
550242,478,0
550246,461,0
550250,0,0
550254,0,0
550258,323,0
550262,548,0
550266,116,0
550270,0,0
550274,152,0
550278,610,0
550282,269,0
550286,0,0
550290,24,0
550294,665,0
550298,285,0
550302,0,0
550306,0,0
550310,573,0
550314,406,0
550318,0,0
550322,0,0
550326,546,0
550330,485,0
550334,0,0
550338,0,0
550342,496,0
550346,499,0
550350,0,0
550354,0,0
550358,399,0
550362,547,0
550366,0,0
550370,0,0
550374,291,0
550378,637,0
550382,208,0
550386,0,0
550390,67,0
550394,619,0
550398,302,0
550402,0,0
550406,1,0
550410,512,0
550414,379,0
550418,0,0
550422,6,0
550426,504,0
550430,500,0
550434,0,0
550438,0,0
550442,442,0
550446,596,0
550450,0,0
550454,0,0
550458,389,0
550462,618,0
550466,0,0
550470,0,0
550474,250,0
550478,659,0
550482,160,0
550486,0,0
550490,116,0
550494,659,0
550498,253,0
550502,0,0
550506,62,0
550510,580,0
550514,320,0
550518,0,0
550522,18,0
550526,510,0
550530,452,0
550534,0,0
550538,0,0
550542,395,0
550546,499,0
550550,0,0
550554,0,0
550558,315,0
550562,608,0
550566,55,0
550570,0,0
550574,244,0
550578,669,0
550582,249,0
550586,0,0
550590,92,0
550594,704,0
550598,251,0
550602,0,0
550606,41,0
550610,686,0
550614,314,0
550618,0,0
550622,0,0
550626,540,0
550630,403,0
550634,0,0
550638,0,0
550642,449,0
550646,453,0
550650,3,0
550654,0,0
550658,337,0
550662,528,0
550666,40,0
550670,0,0
550674,213,0
550678,624,0
550682,222,0
550686,0,0
550690,28,0
550694,677,0
550698,308,0
550702,0,0
550706,0,0
550710,652,0
550714,386,0
550718,0,0
550722,0,0
550726,565,0
550730,436,0
550734,0,0
550738,0,0
550742,510,0
550746,466,0
550750,0,0
550754,0,0
550758,422,0
550762,526,0
550766,0,0
550770,0,0
550774,268,0
550778,581,0
550782,176,0
550786,0,0
550790,72,0
550794,606,0
550798,281,0
550802,0,0
550806,0,0
550810,548,0
550814,390,0
550818,0,0
550822,0,0
550826,526,0
550830,511,0
550834,0,0
550838,0,0
550842,487,0
550846,534,0
550850,0,0
550854,0,0
550858,424,0
550862,594,0
550866,0,0
550870,0,0
550874,307,0
550878,608,0
550882,101,0
550886,0,0
550890,145,0
550894,619,0
550898,205,0
550902,0,0
550906,78,0
550910,567,0
550914,302,0
550918,0,0
550922,14,0
550926,481,0
550930,415,0
550934,0,0
550938,0,0
550942,424,0
550946,511,0
550950,0,0
550954,0,0
550958,350,0
550962,583,0
550966,29,0
550970,0,0
550974,229,0
550978,660,0
550982,137,0
550986,0,0
550990,117,0
550994,682,0
550998,223,0
551002,0,0
551006,74,0
551010,650,0
551014,277,0
551018,23,0
551022,9,0
551026,536,0
551030,375,0
551034,0,0
551038,0,0
551042,436,0
551046,458,0
551050,0,0
551054,0,0
551058,424,0
551062,513,0
551066,16,0
551070,0,0
551074,259,0
551078,623,0
551082,165,0
551086,0,0
551090,56,0
551094,672,0
551098,289,0
551102,0,0
551106,13,0
551110,658,0
551114,380,0
551118,0,0
551122,7,0
551126,568,0
551130,388,0
551134,0,0
551138,0,0
551440,204,0
551442,455,0
551446,464,0
551450,0,0
551454,0,0
551458,385,0
551462,557,0
551466,31,0
551470,0,0
551474,286,0
551478,629,0
551482,89,0
551486,0,0
551490,163,0
551494,676,0
551498,221,0
551502,0,0
551506,92,0
551510,685,0
551514,258,0
551518,0,0
551522,31,0
551526,559,0
551530,340,0
551534,0,0
551538,2,0
551542,492,0
551546,420,0
551550,0,0
551554,0,0
551558,402,0
551562,469,0
551566,0,0
551570,0,0
551574,299,0
551578,608,0
551582,85,0
551586,0,0
551590,121,0
551594,656,0
551598,261,0
551602,0,0
551606,26,0
551610,695,0
551614,321,0
551618,0,0
551622,8,0
551626,588,0
551630,369,0
551634,0,0
551638,0,0
551642,561,0
551646,411,0
551650,0,0
551654,0,0
551658,486,0
551662,481,0
551666,0,0
551670,0,0
551674,339,0
551678,528,0
551682,62,0
551686,0,0
551690,163,0
551694,596,0
551698,274,0
551702,0,0
551706,38,0
551710,661,0
551714,324,0
551718,0,0
551722,0,0
551726,565,0
551730,413,0
551734,0,0
551738,0,0
551742,549,0
551746,508,0
551750,0,0
551754,0,0
551758,489,0
551762,494,0
551766,0,0
551770,0,0
551774,398,0
551778,544,0
551782,7,0
551786,0,0
551790,208,0
551794,617,0
551798,194,0
551802,0,0
551806,46,0
551810,621,0
551814,292,0
551818,0,0
551822,0,0
551826,523,0
551830,368,0
551834,0,0
551838,0,0
551842,537,0
551846,458,0
551850,0,0
551854,0,0
551858,477,0
551862,557,0
551866,0,0
551870,0,0
551874,419,0
551878,612,0
551882,0,0
551886,0,0
551890,259,0
551894,617,0
551898,151,0
551902,0,0
551906,124,0
551910,625,0
551914,253,0
551918,0,0
551922,48,0
551926,613,0
551930,337,0
551934,0,0
551938,0,0
551942,530,0
551946,454,0
551950,0,0
551954,0,0
551958,381,0
551962,549,0
551966,0,0
551970,0,0
551974,342,0
551978,604,0
551982,2,0
551986,0,0
551990,268,0
551994,676,0
551998,158,0
552002,0,0
552006,108,0
552010,691,0
552014,219,0
552018,0,0
552022,62,0
552026,621,0
552030,304,0
552034,0,0
552038,15,0
552042,498,0
552046,404,0
552050,0,0
552054,0,0
552058,421,0
552062,480,0
552066,0,0
552070,0,0
552074,327,0
552078,607,0
552082,40,0
552086,0,0
552090,215,0
552094,647,0
552098,164,0
552102,0,0
552106,62,0
552110,681,0
552114,225,0
552118,0,0
552122,36,0
552126,666,0
552130,282,0
552134,0,0
552138,0,0
552142,556,0
552146,397,0
552150,0,0
552154,0,0
552158,446,0
552162,444,0
552166,0,0
552170,0,0
552174,357,0
552178,517,0
552182,30,0
552186,0,0
552190,235,0
552194,604,0
552198,199,0
552202,0,0
552206,59,0
552210,670,0
