#device=ESP32+AD8232
#cols=t_ms,adc,lead_off
3958,143,0
3962,559,0
3966,508,0
3970,0,0
3974,0,0
3978,424,0
3982,520,0
3986,0,0
3990,0,0
3994,287,0
3998,615,0
4002,40,0
4006,0,0
4010,220,0
4014,649,0
4018,104,0
4022,0,0
4026,152,0
4030,612,0
4034,197,0
4038,0,0
4042,81,0
4046,552,0
4050,265,0
4054,0,0
4058,46,0
4062,473,0
4066,370,0
4070,0,0
4074,0,0
4078,410,0
4082,458,0
4086,0,0
4090,0,0
4094,273,0
4098,571,0
4102,72,0
4106,0,0
4110,185,0
4114,625,0
4118,144,0
4122,0,0
4126,108,0
4130,621,0
4134,230,0
4138,0,0
4142,42,0
4146,592,0
4150,295,0
4154,0,0
4158,26,0
4162,512,0
4166,334,0
4170,0,0
4174,0,0
4178,471,0
4182,440,0
4186,0,0
4190,0,0
4194,328,0
4198,533,0
4202,30,0
4206,0,0
4210,206,0
4214,571,0
4218,121,0
4222,0,0
4226,128,0
4230,561,0
4234,218,0
4238,0,0
4242,44,0
4246,544,0
4250,300,0
4254,0,0
4258,4,0
4262,493,0
4266,380,0
4270,0,0
4274,0,0
4278,467,0
4282,477,0
4286,0,0
4290,0,0
4294,348,0
4298,577,0
4302,9,0
4306,0,0
4310,233,0
4314,599,0
4318,73,0
4322,0,0
4326,169,0
4330,559,0
4334,158,0
4338,0,0
4342,99,0
4346,527,0
4350,254,0
4354,0,0
4358,45,0
4362,466,0
4366,342,0
4370,0,0
4374,0,0
4378,428,0
4382,459,0
4386,0,0
4390,0,0
4394,320,0
4398,569,0
4402,30,0
4406,0,0
4410,168,0
4414,609,0
4418,102,0
4422,0,0
4426,183,0
4430,593,0
4434,145,0
4438,0,0
4442,98,0
4446,589,0
4450,225,0
4454,0,0
4458,56,0
4462,497,0
4466,302,0
4470,0,0
4474,2,0
4478,441,0
4482,404,0
4486,0,0
4490,0,0
4494,334,0
4498,514,0
4502,27,0
4506,0,0
4510,203,0
4514,572,0
4518,106,0
4522,0,0
4526,139,0
4530,568,0
4534,185,0
4538,0,0
4542,65,0
4546,582,0
4550,274,0
4554,0,0
4558,34,0
4562,523,0
4566,322,0
4570,0,0
4574,2,0
4578,482,0
4582,425,0
4586,0,0
4590,0,0
4594,386,0
4598,496,0
4602,0,0
4606,0,0
4610,252,0
4614,557,0
4618,66,0
4622,0,0
4626,180,0
4630,543,0
4634,160,0
4638,0,0
4642,82,0
4646,544,0
4650,267,0
4654,0,0
4658,15,0
4662,492,0
4666,336,0
4670,0,0
4674,0,0
4678,455,0
4682,443,0
4686,0,0
4690,0,0
4694,400,0
4698,537,0
4702,0,0
4706,0,0
4710,258,0
4714,600,0
4718,45,0
4722,0,0
4726,196,0
4730,545,0
4734,119,0
4738,0,0
4742,129,0
4746,555,0
4750,204,0
4754,0,0
4758,65,0
4762,483,0
4766,282,0
4770,0,0
4774,4,0
4778,437,0
4782,415,0
4786,0,0
4790,0,0
4794,362,0
4798,521,0
4802,0,0
4806,0,0
4810,216,0
4814,597,0
4818,59,0
4822,0,0
4826,185,0
4830,573,0
4834,132,0
4838,0,0
4842,117,0
4846,606,0
4850,188,0
4854,0,0
4858,55,0
4862,548,0
4866,244,0
4870,0,0
4874,22,0
4878,443,0
4882,367,0
4886,0,0
4890,0,0
4894,366,0
4898,451,0
4902,0,0
4906,0,0
4910,224,0
4914,546,0
4918,66,0
4922,0,0
4926,161,0
4930,545,0
4934,145,0
4938,0,0
4942,91,0
4946,591,0
4950,228,0
4954,0,0
4958,25,0
4962,550,0
4966,295,0
4970,0,0
4974,1,0
4978,485,0
4982,378,0
4986,0,0
4990,8,0
4994,429,0
4998,433,0
5002,0,0
5006,0,0
5010,275,0
5014,534,0
5018,23,0
5022,0,0
5026,200,0
5030,549,0
5034,115,0
5038,0,0
5042,119,0
5046,544,0
5050,215,0
5054,0,0
5058,28,0
5062,508,0
5066,299,0
5070,0,0
5074,0,0
5078,462,0
5082,392,0
5086,0,0
5090,0,0
5094,397,0
5098,504,0
5102,0,0
5106,0,0
5110,286,0
5114,574,0
5118,16,0
5122,0,0
5126,200,0
5130,596,0
5134,85,0
5138,0,0
5142,159,0
5146,549,0
5150,158,0
5154,0,0
5158,77,0
5162,506,0
5166,236,0
5170,0,0
5174,23,0
5178,441,0
5182,364,0
5186,0,0
5190,0,0
5194,392,0
5198,462,0
5202,0,0
5206,0,0
5210,263,0
5214,574,0
5218,43,0
5222,0,0
5226,193,0
5230,597,0
5234,104,0
5238,0,0
5242,143,0
5246,571,0
5250,166,0
5254,0,0
5258,78,0
5262,546,0
5266,231,0
5270,0,0
5274,40,0
5278,477,0
5282,314,0
5286,0,0
5290,0,0
5294,412,0
5298,412,0
5302,0,0
5306,0,0
5310,283,0
5314,512,0
5318,37,0
5322,0,0
5326,177,0
5330,551,0
5334,112,0
5338,0,0
5342,112,0
5346,566,0
5350,186,0
5354,0,0
5358,56,0
5362,557,0
5366,269,0
5370,0,0
5374,2,0
5378,494,0
5382,345,0
5386,0,0
5390,0,0
5394,452,0
5398,416,0
5402,0,0
5406,0,0
5410,339,0
5414,505,0
5418,0,0
5422,0,0
5426,230,0
5430,542,0
5434,66,0
5438,0,0
5442,155,0
5446,524,0
5450,158,0
5454,0,0
5458,67,0
5462,520,0
5466,266,0
5470,0,0
5474,7,0
5478,454,0
5482,344,0
5486,0,0
5490,0,0
5494,428,0
5498,448,0
5502,0,0
5506,0,0
5510,346,0
5514,536,0
5518,0,0
5522,0,0
5526,243,0
5530,602,0
5534,48,0
5538,0,0
5542,175,0
5546,548,0
5550,129,0
5554,0,0
5558,105,0
5562,516,0
5566,212,0
5570,0,0
5574,52,0
5578,460,0
5582,269,0
5586,0,0
5590,0,0
5594,418,0
5598,398,0
5602,0,0
5606,0,0
5610,329,0
5614,523,0
5618,10,0
5622,0,0
5626,199,0
5630,589,0
5634,85,0
5638,0,0
5642,151,0
5646,566,0
5650,142,0
5654,0,0
5658,115,0
5662,566,0
5666,212,0
5670,0,0
5674,64,0
5678,518,0
5682,289,0
5686,0,0
5690,8,0
5694,454,0
5698,386,0
5702,0,0
5706,0,0
5710,358,0
5714,472,0
5718,5,0
5722,0,0
5726,208,0
5730,540,0
5734,80,0
5738,0,0
5742,145,0
5746,528,0
5750,138,0
5754,0,0
5758,75,0
5762,559,0
5766,242,0
5770,0,0
5774,17,0
5778,520,0
5782,310,0
5786,0,0
5790,0,0
5794,475,0
5798,396,0
5802,0,0
5806,0,0
5810,407,0
5814,463,0
5818,0,0
5822,0,0
5826,253,0
5830,527,0
5834,42,0
5838,0,0
5842,183,0
5846,506,0
5850,116,0
5854,0,0
5858,101,0
5862,542,0
5866,242,0
5870,0,0
5874,26,0
5878,482,0
5882,306,0
5886,0,0
5890,0,0
5894,433,0
5898,406,0
5902,0,0
5906,0,0
5910,389,0
5914,491,0
5918,0,0
5922,0,0
5926,259,0
5930,570,0
5934,15,0
5938,0,0
5942,215,0
5946,528,0
5950,83,0
5954,0,0
5958,132,0
5962,546,0
5966,171,0
5970,0,0
5974,69,0
5978,468,0
5982,233,0
5986,0,0
5990,24,0
5994,422,0
5998,356,0
6002,0,0
6006,0,0
6010,364,0
6014,452,0
6018,4,0
6022,0,0
6026,227,0
6030,555,0
6034,49,0
6038,0,0
6042,163,0
6046,555,0
6050,108,0
6054,0,0
6058,104,0
6062,561,0
6066,176,0
6070,0,0
6074,60,0
6078,520,0
6082,229,0
6086,0,0
6090,31,0
6094,456,0
6098,318,0
6102,0,0
6106,0,0
6110,389,0
6114,403,0
6118,0,0
6122,0,0
6126,235,0
6130,487,0
6134,38,0
6138,0,0
6142,158,0
6146,525,0
6150,111,0
6154,0,0
6158,94,0
6162,517,0
6166,188,0
6170,0,0
6174,26,0
6178,505,0
6182,255,0
6186,0,0
6190,3,0
6194,450,0
6198,344,0
6202,0,0
6206,0,0
6210,401,0
6214,400,0
6218,0,0
6222,0,0
6226,276,0
6230,468,0
6234,0,0
6238,0,0
6242,197,0
6246,494,0
6250,57,0
6254,0,0
6258,131,0
6262,490,0
6266,159,0
6270,0,0
6274,34,0
6278,458,0
6282,242,0
6286,0,0
6290,5,0
6294,406,0
6298,321,0
6302,0,0
6306,0,0
6310,381,0
6314,407,0
6318,0,0
6322,0,0
6326,273,0
6330,500,0
6334,0,0
6338,0,0
6342,203,0
6346,514,0
6350,58,0
6354,0,0
6358,143,0
6362,477,0
6366,133,0
6370,0,0
6374,71,0
6378,461,0
6382,174,0
6386,0,0
6390,49,0
6394,397,0
6398,277,0
6402,0,0
6406,0,0
6410,354,0
6414,366,0
6418,0,0
6422,0,0
6426,241,0
6430,471,0
6434,27,0
6438,0,0
6442,163,0
6446,510,0
6450,77,0
6454,0,0
6458,116,0
6462,498,0
6466,138,0
6470,0,0
6474,68,0
6478,481,0
6482,182,0
6486,0,0
6490,42,0
6494,424,0
6498,243,0
6502,0,0
6506,0,0
6510,394,0
6514,336,0
6518,0,0
6522,0,0
6526,261,0
6530,406,0
6534,16,0
6538,0,0
6542,165,0
6546,468,0
6550,68,0
6554,0,0
6558,109,0
6562,447,0
6566,144,0
6570,0,0
6574,34,0
6578,454,0
6582,212,0
6586,0,0
6590,2,0
6594,405,0
6598,251,0
6602,0,0
6606,0,0
6610,370,0
6614,310,0
6618,0,0
6622,0,0
6626,288,0
6630,367,0
6634,0,0
6638,0,0
6642,180,0
6646,403,0
6650,28,0
6654,0,0
6658,111,0
6662,383,0
6666,103,0
6670,0,0
6674,66,0
6678,387,0
6682,192,0
6686,0,0
6690,0,0
6694,356,0
6698,247,0
6702,0,0
6706,0,0
6710,346,0
6714,323,0
6718,0,0
6722,0,0
6726,279,0
6730,399,0
6734,0,0
6738,0,0
6742,188,0
6746,433,0
6750,21,0
6754,0,0
6758,140,0
6762,396,0
6766,77,0
6770,0,0
6774,78,0
6778,395,0
6782,142,0
6786,0,0
6790,38,0
6794,354,0
6798,210,0
6802,0,0
6806,1,0
6810,324,0
6814,304,0
6818,0,0
6822,0,0
6826,251,0
6830,391,0
6834,3,0
6838,0,0
6842,162,0
6846,441,0
6850,41,0
6854,0,0
6858,140,0
6862,422,0
6866,83,0
6870,0,0
6874,83,0
6878,423,0
6882,132,0
6886,0,0
6890,38,0
6894,348,0
6898,178,0
6902,0,0
6906,16,0
6910,326,0
6914,270,0
6918,0,0
6922,0,0
6926,269,0
6930,330,0
6934,0,0
6938,0,0
6942,153,0
6946,402,0
6950,45,0
6954,0,0
6958,104,0
6962,395,0
6966,102,0
6970,0,0
6974,47,0
6978,422,0
6982,148,0
6986,0,0
6990,16,0
6994,391,0
6998,190,0
7002,0,0
7006,2,0
7010,353,0
7014,242,0
7018,0,0
7022,0,0
7026,294,0
7030,316,0
7034,0,0
7038,0,0
7042,180,0
7046,380,0
7050,32,0
7054,0,0
7058,116,0
7062,357,0
7066,97,0
7070,0,0
7074,57,0
7078,387,0
7082,136,0
7086,0,0
7090,9,0
7094,364,0
7098,189,0
7102,0,0
7106,0,0
7110,349,0
7114,261,0
7118,0,0
7122,0,0
7126,300,0
7130,340,0
7134,0,0
7138,0,0
7142,198,0
7146,366,0
7150,0,0
7154,0,0
7158,154,0
7162,382,0
7166,49,0
7170,0,0
7174,99,0
7178,357,0
7182,114,0
7186,0,0
7190,28,0
7194,338,0
7198,177,0
7202,0,0
7206,0,0
7210,300,0
7214,248,0
7218,0,0
7222,0,0
7226,272,0
7230,308,0
7234,0,0
7238,0,0
7242,191,0
7246,385,0
7250,0,0
7254,0,0
7258,147,0
7262,396,0
7266,27,0
7270,0,0
7274,106,0
7278,354,0
7282,79,0
7286,0,0
7290,56,0
7294,330,0
7298,126,0
7302,0,0
7306,25,0
7310,309,0
7314,209,0
7318,0,0
7322,0,0
7326,257,0
7330,279,0
7334,0,0
7338,0,0
7342,153,0
7346,360,0
7350,25,0
7354,0,0
7358,110,0
7362,356,0
7366,50,0
7370,0,0
7374,79,0
7378,354,0
7382,82,0
7386,0,0
7390,39,0
7394,339,0
7398,112,0
7402,0,0
7406,19,0
7410,300,0
7414,168,0
7418,0,0
7422,0,0
7426,244,0
7430,217,0
7434,0,0
7438,0,0
7442,144,0
7446,279,0
7450,32,0
7454,0,0
7458,88,0
7462,296,0
7466,59,0
7470,0,0
7474,40,0
7478,293,0
7482,109,0
7486,0,0
7490,4,0
7494,297,0
7498,141,0
7502,0,0
7506,0,0
7510,274,0
7514,177,0
7518,0,0
7522,0,0
7526,258,0
7530,223,0
7534,0,0
7538,0,0
7542,181,0
7546,262,0
7550,0,0
7554,0,0
7558,124,0
7562,256,0
7566,26,0
7570,0,0
7574,68,0
7578,262,0
7582,99,0
7586,0,0
7590,16,0
7594,259,0
7598,140,0
7602,0,0
7606,0,0
7610,232,0
7614,169,0
7618,0,0
7622,0,0
7626,220,0
7630,215,0
7634,0,0
7638,0,0
7642,167,0
7646,263,0
7650,0,0
7654,0,0
7658,117,0
7662,273,0
7666,10,0
7670,0,0
7674,83,0
7678,239,0
7682,53,0
7686,0,0
7690,53,0
7694,244,0
7698,86,0
7702,0,0
7706,18,0
7710,240,0
7714,145,0
7718,0,0
7722,0,0
7726,203,0
7730,214,0
7734,0,0
7738,0,0
7742,116,0
7746,259,0
7750,21,0
7754,0,0
7758,88,0
7762,293,0
7766,32,0
7770,0,0
7774,73,0
7778,260,0
7782,63,0
7786,0,0
7790,57,0
7794,275,0
7798,79,0
7802,0,0
7806,21,0
7810,229,0
7814,109,0
7818,0,0
7822,0,0
7826,219,0
7830,147,0
7834,0,0
7838,0,0
7842,146,0
7846,208,0
7850,23,0
7854,0,0
7858,88,0
7862,270,0
7866,47,0
7870,0,0
7874,47,0
7878,241,0
7882,72,0
7886,0,0
7890,7,0
7894,276,0
7898,122,0
7902,0,0
7906,2,0
7910,282,0
7914,140,0
7918,0,0
7922,0,0
7926,243,0
7930,174,0
7934,0,0
7938,0,0
7942,190,0
7946,203,0
7950,0,0
7954,0,0
7958,113,0
7962,239,0
7966,17,0
7970,0,0
7974,72,0
7978,219,0
7982,67,0
7986,0,0
7990,20,0
7994,234,0
7998,116,0
8002,0,0
8006,0,0
8010,222,0
8014,140,0
8018,0,0
8022,0,0
8026,234,0
8030,201,0
8034,0,0
8038,0,0
8042,188,0
8046,239,0
8050,0,0
8054,0,0
8058,127,0
8062,263,0
8066,21,0
8070,0,0
8074,101,0
8078,223,0
8082,31,0
8086,0,0
8090,59,0
8094,234,0
8098,71,0
8102,0,0
8106,19,0
8110,231,0
8114,131,0
8118,0,0
8122,0,0
8126,199,0
8130,190,0
8134,0,0
8138,0,0
8142,156,0
8146,235,0
8150,0,0
8154,0,0
8158,108,0
8162,288,0
8166,9,0
8170,0,0
8174,84,0
8178,297,0
8182,32,0
8186,0,0
8190,60,0
8194,272,0
8198,68,0
8202,0,0
8206,30,0
8210,239,0
8214,95,0
8218,0,0
8222,10,0
8226,214,0
8230,146,0
8234,0,0
8238,0,0
8242,165,0
8246,190,0
8250,0,0
8254,0,0
8258,99,0
8262,252,0
8266,33,0
8270,0,0
8274,58,0
8278,282,0
8282,67,0
8286,0,0
8290,24,0
8294,303,0
8298,125,0
8302,0,0
8306,15,0
8310,299,0
8314,132,0
8318,0,0
8322,6,0
8326,261,0
8330,154,0
8334,0,0
8338,0,0
8342,220,0
8346,195,0
8350,0,0
8354,0,0
8358,133,0
8362,261,0
8366,32,0
8370,0,0
8374,80,0
8378,256,0
8382,78,0
8386,0,0
8390,14,0
8394,253,0
8398,101,0
8402,0,0
8406,0,0
8410,255,0
8414,151,0
8418,0,0
8422,0,0
8426,272,0
8430,210,0
8434,0,0
8438,0,0
8442,236,0
8446,244,0
8450,0,0
8454,0,0
8458,142,0
8462,252,0
8466,0,0
8470,0,0
8474,121,0
8478,244,0
8482,1,0
8486,0,0
8490,35,0
8494,178,0
8498,2,0
8502,0,0
8506,13,0
8510,277,0
8514,109,0
8518,0,0
8522,0,0
8526,267,0
8530,228,0
8534,0,0
8538,0,0
8542,235,0
8546,298,0
8550,0,0
8554,0,0
8558,174,0
8562,389,0
8566,3,0
8570,0,0
8574,125,0
8578,410,0
8582,14,0
8586,0,0
8590,75,0
8594,370,0
8598,59,0
8602,0,0
8606,36,0
8610,330,0
8614,82,0
8618,0,0
8622,5,0
8626,209,0
8630,107,0
8634,0,0
8638,0,0
8642,179,0
8646,177,0
8650,0,0
8654,0,0
8658,111,0
8662,267,0
8666,23,0
8670,0,0
8674,63,0
8678,319,0
8682,74,0
8686,0,0
8690,60,0
8694,315,0
8698,105,0
8702,0,0
8706,24,0
8710,331,0
8714,142,0
8718,0,0
8722,13,0
8726,291,0
8730,143,0
8734,0,0
8738,0,0
8742,258,0
8746,206,0
8750,0,0
8754,0,0
8758,94,0
8762,341,0
8766,57,0
8770,0,0
8774,150,0
8778,478,0
8782,174,0
8786,0,0
8790,98,0
8794,438,0
8798,238,0
8802,0,0
8806,22,0
8810,444,0
8814,241,0
8818,0,0
8822,0,0
8826,408,0
8830,280,0
8834,0,0
8838,0,0
8842,370,0
8846,326,0
8850,0,0
8854,0,0
8858,281,0
8862,380,0
8866,2,0
8870,0,0
8874,178,0
8878,403,0
8882,50,0
8886,0,0
8890,122,0
8894,348,0
8898,125,0
8902,0,0
8906,23,0
8910,355,0
8914,210,0
8918,0,0
8922,0,0
8926,343,0
8930,284,0
8934,0,0
8938,0,0
8942,311,0
8946,356,0
8950,0,0
8954,0,0
8958,272,0
8962,422,0
8966,1,0
8970,0,0
8974,174,0
8978,469,0
8982,36,0
8986,0,0
8990,135,0
8994,354,0
8998,100,0
9002,0,0
9006,70,0
9010,345,0
9014,119,0
9018,1,0
9022,34,0
9026,322,0
9030,195,0
9034,0,0
9038,1,0
9042,287,0
9046,317,0
9050,0,0
9054,0,0
9058,211,0
9062,400,0
9066,58,0
9070,0,0
9074,115,0
9078,466,0
9082,88,0
9086,0,0
9090,99,0
9094,432,0
9098,115,0
9102,0,0
9106,44,0
9110,417,0
9114,138,0
9118,0,0
9122,29,0
9126,379,0
9130,177,0
9134,0,0
9138,5,0
9142,309,0
9146,224,0
9150,0,0
9154,0,0
9158,214,0
9162,304,0
9166,22,0
9170,0,0
9174,97,0
9178,387,0
9182,93,0
9186,0,0
9190,60,0
9194,392,0
9198,158,0
9202,0,0
9206,10,0
9210,399,0
9214,209,0
9218,0,0
9222,3,0
9226,385,0
9230,215,0
9234,0,0
9238,4,0
9242,331,0
9246,267,0
9250,0,0
9254,0,0
9258,276,0
9262,287,0
9266,0,0
9270,0,0
9274,148,0
9278,361,0
9282,16,0
9286,0,0
9290,89,0
9294,360,0
9298,111,0
9302,0,0
9306,15,0
9310,327,0
9314,197,0
9318,0,0
9322,0,0
9326,327,0
9330,243,0
9334,0,0
9338,0,0
9342,328,0
9346,342,0
9350,0,0
9354,0,0
9358,297,0
9362,398,0
9366,0,0
9370,0,0
9374,199,0
9378,455,0
9382,10,0
9386,0,0
9390,131,0
9394,395,0
9398,53,0
9402,0,0
9406,88,0
9410,342,0
9414,113,0
9418,0,0
9422,35,0
9426,314,0
9430,163,0
9434,0,0
9438,0,0
9442,283,0
9446,270,0
9450,0,0
9454,0,0
9458,231,0
9462,366,0
9466,0,0
9470,0,0
9474,113,0
9478,443,0
9482,33,0
9486,0,0
9490,105,0
9494,427,0
9498,66,0
9502,0,0
9506,65,0
9510,388,0
9514,94,0
9518,0,0
9522,31,0
9526,375,0
9530,145,0
9534,0,0
9538,12,0
9542,322,0
9546,228,0
9550,0,0
9554,0,0
9558,244,0
9562,288,0
9566,0,0
9570,0,0
9574,124,0
9578,380,0
9582,52,0
9586,0,0
9590,76,0
9594,397,0
9598,108,0
9602,0,0
9606,8,0
9610,383,0
9614,170,0
9618,0,0
9622,0,0
9626,374,0
9630,182,0
9634,0,0
9638,4,0
9642,372,0
9646,252,0
9650,0,0
9654,0,0
9658,344,0
9662,299,0
9666,0,0
9670,0,0
9674,211,0
9678,383,0
9682,22,0
9686,0,0
9690,115,0
9694,388,0
9698,99,0
9702,0,0
9706,39,0
9710,334,0
9714,200,0
9718,0,0
9722,0,0
9726,323,0
9730,200,0
9734,0,0
9738,0,0
9742,319,0
9746,261,0
9750,0,0
9754,0,0
9758,297,0
9762,316,0
9766,0,0
9770,0,0
9774,199,0
9778,393,0
9782,0,0
9786,0,0
9790,138,0
9794,385,0
9798,9,0
9802,0,0
9806,89,0
9810,317,0
9814,73,0
9818,0,0
9822,22,0
9826,324,0
9830,197,0
9834,0,0
9838,0,0
9842,281,0
9846,291,0
9850,0,0
9854,0,0
9858,271,0
9862,424,0
9866,220,0
9870,85,0
9874,442,0
9878,647,0
9882,296,0
9886,49,0
9890,338,0
9894,674,0
9898,327,0
9902,116,0
9906,375,0
9910,587,0
9914,325,0
9918,114,0
9922,276,0
9926,505,0
9930,322,0
9934,123,0
9938,212,0
9942,419,0
9946,325,0
9950,126,0
9954,82,0
9958,348,0
9962,350,0
9966,143,0
9970,15,0
9974,203,0
9978,418,0
9982,208,0
9986,8,0
9990,105,0
9994,434,0
9998,202,0
10002,0,0
10006,42,0
10010,356,0
10014,216,0
10018,0,0
10238,102,0
10242,283,0
10246,253,0
10250,17,0
10254,0,0
10258,278,0
10262,330,0
10266,10,0
10270,0,0
10274,228,0
10278,358,0
10282,74,0
10286,0,0
10290,129,0
10294,357,0
10298,2,0
10302,0,0
10306,89,0
10310,294,0
10314,30,0
10318,0,0
10322,44,0
10326,220,0
10330,33,0
10334,0,0
10338,25,0
10342,196,0
10346,50,0
10350,0,0
10354,4,0
10358,188,0
10362,164,0
10366,0,0
10370,0,0
10374,120,0
10378,244,0
10382,28,0
10386,0,0
10390,34,0
10394,314,0
10398,45,0
10402,0,0
10406,50,0
10410,312,0
10414,33,0
10418,0,0
10422,33,0
10426,270,0
10430,52,0
10434,0,0
10438,5,0
10442,260,0
10446,54,0
10450,0,0
10454,0,0
10458,219,0
10462,151,0
10466,0,0
10470,0,0
10474,146,0
10478,162,0
10482,4,0
10486,0,0
10490,25,0
10494,212,0
10498,21,0
10502,0,0
10506,8,0
10510,211,0
10514,73,0
10518,0,0
10522,0,0
10526,233,0
10530,121,0
10534,0,0
10538,0,0
10542,258,0
10546,144,0
10550,0,0
10554,0,0
10558,246,0
10562,189,0
10566,0,0
10570,0,0
10574,200,0
10578,184,0
10582,0,0
10586,0,0
10590,111,0
10594,224,0
10598,0,0
10602,0,0
10606,86,0
10610,189,0
10614,14,0
10618,0,0
10622,13,0
10626,161,0
10630,80,0
10634,0,0
10638,0,0
10642,171,0
10646,116,0
10650,0,0
10654,0,0
10658,167,0
10662,190,0
10666,0,0
10670,0,0
10674,170,0
10678,243,0
10682,4,0
10686,0,0
10690,112,0
10694,299,0
10698,0,0
10702,0,0
10706,81,0
10710,279,0
10714,1,0
10718,0,0
10722,54,0
10726,212,0
10730,22,0
10734,0,0
10738,12,0
10742,201,0
10746,56,0
10750,0,0
10754,20,0
10758,190,0
10762,145,0
10766,0,0
10770,0,0
10774,145,0
10778,186,0
10782,5,0
10786,0,0
10790,44,0
10794,291,0
10798,67,0
10802,0,0
10806,16,0
10810,300,0
10814,81,0
10818,0,0
10822,9,0
10826,250,0
10830,94,0
10834,0,0
10838,3,0
10842,269,0
10846,82,0
10850,0,0
10854,9,0
10858,213,0
10862,48,0
10866,0,0
10870,0,0
10874,186,0
10878,96,0
10882,0,0
10886,0,0
10890,66,0
10894,137,0
10898,27,0
10902,0,0
10906,34,0
10910,152,0
10914,43,0
10918,0,0
10922,5,0
10926,128,0
10930,62,0
10934,0,0
10938,0,0
10942,182,0
10946,95,0
10950,0,0
10954,0,0
10958,212,0
10962,153,0
10966,0,0
10970,0,0
10974,209,0
10978,181,0
10982,0,0
10986,0,0
10990,139,0
10994,239,0
10998,19,0
11002,0,0
11006,129,0
11010,234,0
11014,52,0
11018,0,0
11022,104,0
11026,192,0
11030,107,0
11034,15,0
11038,78,0
11042,237,0
11046,157,0
11050,33,0
11054,40,0
11058,208,0
11062,176,0
11066,19,0
11070,0,0
11074,201,0
11078,202,0
11082,23,0
11086,0,0
11090,126,0
11094,248,0
11098,12,0
11102,0,0
11106,89,0
11110,252,0
11114,0,0
11118,0,0
11122,63,0
11126,198,0
11130,14,0
11134,0,0
11138,78,0
11142,213,0
11146,37,0
11150,0,0
11154,80,0
11158,138,0
11162,0,0
11166,0,0
11170,7,0
11174,105,0
11178,4,0
11182,0,0
11186,0,0
11190,41,0
11194,85,0
11198,11,0
11202,0,0
11206,23,0
11210,154,0
11214,0,0
11218,0,0
11222,24,0
11226,110,0
11230,5,0
11234,0,0
11238,44,0
11242,178,0
11246,0,0
11250,0,0
11254,67,0
11258,204,0
11262,0,0
11266,0,0
11270,21,0
11274,218,0
11278,5,0
11282,0,0
11286,5,0
11290,128,0
11294,56,0
11298,3,0
11302,0,0
11306,75,0
11310,97,0
11314,0,0
11318,0,0
11322,24,0
11326,53,0
11330,1,0
11334,0,0
11338,5,0
11342,143,0
11346,12,0
11350,0,0
11354,0,0
11358,182,0
11362,26,0
11366,0,0
11370,0,0
11374,224,0
11378,90,0
11382,0,0
11386,0,0
11390,190,0
11394,113,0
11398,0,0
11402,0,0
11406,146,0
11410,121,0
11414,0,0
11418,0,0
11422,144,0
11426,105,0
11430,0,0
11434,0,0
11438,93,0
11442,160,0
11446,45,0
11450,0,0
11454,2,0
11458,227,0
11462,145,0
11466,0,0
11470,0,0
11474,213,0
11478,250,0
11482,0,0
11486,0,0
11490,172,0
11494,318,0
11498,0,0
11502,0,0
11506,107,0
11510,379,0
11514,0,0
11518,0,0
11522,95,0
11526,377,0
11530,20,0
11534,0,0
11538,68,0
11542,287,0
11546,87,0
11550,0,0
11554,39,0
11558,260,0
11562,94,0
11566,0,0
11570,6,0
11574,226,0
11578,165,0
11582,0,0
11586,0,0
11590,164,0
11594,285,0
11598,13,0
11602,0,0
11606,53,0
11610,363,0
11614,47,0
11618,0,0
11622,13,0
11626,363,0
11630,64,0
11634,0,0
11638,17,0
11642,322,0
11646,93,0
11650,0,0
11654,46,0
11658,249,0
11662,3,0
11666,0,0
11670,22,0
11674,218,0
11678,55,0
11682,0,0
11686,7,0
11690,169,0
11694,63,0
11698,0,0
11702,0,0
11706,47,0
11710,138,0
11714,0,0
11718,0,0
11722,38,0
11726,121,0
11730,9,0
11734,0,0
11738,5,0
11742,139,0
11746,37,0
11750,0,0
11754,0,0
11758,204,0
11762,74,0
11766,0,0
11770,0,0
11774,229,0
11778,129,0
11782,0,0
11786,0,0
11790,196,0
11794,111,0
11798,0,0
11802,0,0
11806,123,0
11810,154,0
11814,0,0
11818,0,0
11822,108,0
11826,133,0
11830,2,0
11834,0,0
11838,61,0
11842,138,0
11846,29,0
11850,0,0
11854,6,0
11858,124,0
11862,0,0
11866,0,0
11870,0,0
11874,193,0
11878,207,0
11882,0,0
11886,0,0
11890,191,0
11894,240,0
11898,0,0
11902,0,0
11906,109,0
11910,313,0
11914,2,0
11918,0,0
11922,88,0
11926,274,0
11930,0,0
11934,0,0
11938,48,0
11942,200,0
11946,32,0
11950,0,0
11954,29,0
11958,192,0
11962,52,0
11966,0,0
11970,19,0
11974,186,0
11978,132,0
11982,0,0
11986,0,0
11990,154,0
11994,214,0
11998,2,0
12002,0,0
12006,62,0
12010,304,0
12014,63,0
12018,0,0
12022,30,0
12026,304,0
12030,41,0
12034,0,0
12038,29,0
12042,270,0
12046,66,0
12050,0,0
12054,14,0
12058,268,0
12062,64,0
12066,0,0
12070,7,0
12074,237,0
12078,112,0
12082,0,0
12086,0,0
12090,198,0
12094,145,0
12098,2,0
12102,0,0
12106,72,0
12110,203,0
12114,66,0
12118,0,0
12122,16,0
12126,216,0
12130,84,0
12134,0,0
12138,0,0
12142,208,0
12146,127,0
12150,0,0
12154,0,0
12158,245,0
12162,168,0
12166,0,0
12170,0,0
12174,254,0
12178,181,0
12182,0,0
12186,0,0
12190,240,0
12194,181,0
12198,0,0
12202,0,0
12206,155,0
12210,208,0
12214,0,0
12218,0,0
12222,117,0
12226,212,0
12230,13,0
12234,0,0
12238,34,0
12242,166,0
12246,91,0
12250,0,0
12254,0,0
12258,190,0
12262,133,0
12266,0,0
12270,0,0
12274,214,0
12278,197,0
12282,0,0
12286,0,0
12290,283,0
12294,338,0
12298,0,0
12302,0,0
12306,224,0
12310,423,0
12314,13,0
12318,0,0
12322,145,0
12326,427,0
12330,9,0
12334,0,0
12338,114,0
12342,334,0
12346,86,0
12350,0,0
12354,29,0
12358,293,0
12362,96,0
12366,0,0
12370,17,0
12374,248,0
12378,86,0
12382,0,0
12386,0,0
12390,51,0
12394,50,0
12398,0,0
12402,0,0
12406,85,0
12410,240,0
12414,0,0
12418,0,0
12422,37,0
12426,335,0
12430,0,0
12434,0,0
12438,40,0
12442,340,0
12446,50,0
12450,0,0
12454,41,0
12458,366,0
12462,63,0
12466,0,0
12470,17,0
12474,314,0
12478,73,0
12482,0,0
12486,0,0
12490,303,0
12494,207,0
12498,0,0
12502,0,0
12506,218,0
12510,310,0
12514,2,0
12518,0,0
12522,73,0
12526,321,0
12530,0,0
12534,0,0
12538,2,0
12542,258,0
12546,13,0
12550,0,0
12554,0,0
12558,363,0
12562,124,0
12566,0,0
12570,0,0
12574,417,0
12578,237,0
12582,0,0
12586,0,0
12590,404,0
12594,300,0
12598,0,0
12602,0,0
12606,324,0
12610,365,0
12614,0,0
12618,0,0
12622,189,0
12626,457,0
12630,16,0
12634,0,0
12638,108,0
12642,434,0
12646,147,0
12650,0,0
12654,43,0
12658,500,0
12662,280,0
12666,0,0
12670,0,0
12674,501,0
12678,378,0
12682,0,0
12686,0,0
12690,493,0
12694,500,0
12698,0,0
12702,0,0
12706,428,0
12710,584,0
12714,0,0
12718,0,0
12722,276,0
12726,662,0
12730,43,0
12734,0,0
12738,242,0
12742,720,0
12746,173,0
12750,0,0
12754,180,0
12758,724,0
12762,323,0
12766,0,0
12770,84,0
12774,688,0
12778,466,0
12782,0,0
12786,16,0
12790,631,0
12794,645,0
12798,0,0
12802,0,0
12806,556,0
12810,779,0
12814,0,0
12818,0,0
12822,407,0
12826,920,0
12830,105,0
12834,0,0
12838,319,0
12842,980,0
12846,217,0
12850,0,0
12854,234,0
12858,939,0
12862,366,0
12866,0,0
12870,132,0
12874,856,0
12878,490,0
12882,0,0
12886,78,0
12890,754,0
12894,654,0
12898,0,0
12902,0,0
12906,661,0
12910,791,0
12914,0,0
12918,0,0
12922,449,0
12926,969,0
12930,189,0
12934,0,0
12938,305,0
12942,1035,0
12946,311,0
12950,0,0
12954,192,0
12958,1004,0
12962,439,0
12966,0,0
12970,100,0
12974,953,0
12978,563,0
12982,0,0
12986,73,0
12990,849,0
12994,655,0
12998,0,0
13002,1,0
13006,747,0
13010,788,0
13014,0,0
13018,0,0
13022,516,0
13026,918,0
13030,166,0
13034,0,0
13038,313,0
13042,927,0
13046,301,0
13050,0,0
13054,194,0
13058,900,0
13062,441,0
13066,0,0
13070,73,0
13074,877,0
13078,563,0
13082,0,0
13086,5,0
13090,730,0
13094,661,0
13098,0,0
13102,0,0
13106,670,0
13110,743,0
13114,0,0
13118,0,0
13122,457,0
13126,794,0
13130,82,0
13134,0,0
13138,312,0
13142,711,0
13146,51,0
13150,0,0
13154,149,0
13158,519,0
13162,63,0
13166,0,0
13170,32,0
13174,546,0
13178,269,0
13182,0,0
13186,0,0
13190,497,0
13194,378,0
13198,0,0
13202,0,0
13206,461,0
13210,551,0
13214,0,0
13218,0,0
13222,374,0
13226,695,0
13230,0,0
13234,0,0
13238,262,0
13242,701,0
13246,6,0
13250,0,0
13254,246,0
13258,728,0
13262,104,0
13266,0,0
13270,172,0
13274,505,0
13278,0,0
13282,0,0
13286,0,0
13290,163,0
13294,0,0
13298,0,0
13302,35,0
13306,460,0
13310,300,0
13314,0,0
13318,0,0
13322,275,0
13326,323,0
13330,0,0
13334,0,0
13338,142,0
13342,314,0
13346,0,0
13350,0,0
13354,28,0
13358,137,0
13362,0,0
13366,0,0
13370,41,0
13374,247,0
13378,0,0
13382,0,0
13386,50,0
13390,268,0
13394,0,0
13398,0,0
13402,2,0
13406,275,0
13410,9,0
13414,0,0
13418,0,0
13422,267,0
13426,201,0
13430,0,0
13434,0,0
13438,209,0
13442,308,0
13446,0,0
13450,0,0
13454,90,0
13458,241,0
13462,0,0
13466,0,0
13470,39,0
13474,299,0
13478,0,0
13482,0,0
13486,42,0
13490,325,0
13494,10,0
13498,0,0
13502,31,0
13506,354,0
13510,67,0
13514,0,0
13518,23,0
13522,303,0
13526,122,0
13530,0,0
13534,0,0
13538,225,0
13542,171,0
13546,0,0
13550,0,0
13554,179,0
13558,172,0
13562,0,0
13566,0,0
13570,127,0
13574,240,0
13578,15,0
13582,0,0
13586,105,0
13590,281,0
13594,55,0
13598,0,0
13602,46,0
13606,322,0
13610,94,0
13614,0,0
13618,0,0
13622,258,0
13626,119,0
13630,0,0
13634,0,0
13638,230,0
13642,161,0
13646,0,0
13650,0,0
13654,207,0
13658,137,0
13662,0,0
13666,0,0
13670,184,0
13674,183,0
13678,0,0
13682,0,0
13686,132,0
13690,183,0
13694,0,0
13698,0,0
13702,83,0
13706,268,0
13710,104,0
13714,0,0
13718,31,0
13722,232,0
13726,159,0
13730,0,0
13734,0,0
13738,223,0
13742,235,0
13746,0,0
13750,0,0
13754,235,0
13758,222,0
13762,0,0
13766,0,0
13770,202,0
13774,263,0
13778,0,0
13782,0,0
13786,152,0
13790,205,0
13794,0,0
13798,0,0
13802,92,0
13806,204,0
13810,0,0
13814,0,0
13818,55,0
13822,166,0
13826,16,0
13830,0,0
13834,4,0
13838,129,0
13842,151,0
13846,0,0
13850,0,0
13854,119,0
13858,174,0
13862,0,0
13866,0,0
13870,121,0
13874,257,0
13878,0,0
13882,0,0
13886,131,0
13890,274,0
13894,0,0
13898,0,0
13902,104,0
13906,295,0
13910,0,0
13914,0,0
13918,75,0
13922,276,0
13926,26,0
13930,0,0
13934,36,0
13938,207,0
13942,93,0
13946,0,0
13950,0,0
13954,148,0
13958,70,0
13962,0,0
13966,0,0
13970,86,0
13974,101,0
13978,0,0
13982,0,0
13986,67,0
13990,156,0
13994,0,0
13998,0,0
14002,37,0
14006,229,0
14010,9,0
14014,0,0
14018,13,0
14022,259,0
14026,80,0
14030,0,0
14034,9,0
14038,258,0
14042,162,0
14046,0,0
14050,8,0
14054,255,0
14058,120,0
14062,0,0
14066,7,0
14070,211,0
14074,139,0
14078,0,0
14082,0,0
14086,150,0
14090,143,0
14094,0,0
14098,0,0
14102,65,0
14106,162,0
14110,0,0
14114,0,0
14118,28,0
14122,211,0
14126,103,0
14130,0,0
14134,34,0
14138,270,0
14142,229,0
14146,0,0
14150,14,0
14154,335,0
14158,308,0
14162,0,0
14166,0,0
14170,305,0
14174,284,0
14178,0,0
14182,0,0
14186,292,0
14190,285,0
14194,0,0
14198,3,0
14202,259,0
14206,295,0
14210,0,0
14214,0,0
14218,190,0
14222,282,0
14226,33,0
14230,0,0
14234,99,0
14238,240,0
14242,146,0
14246,0,0
14250,22,0
14254,229,0
14258,233,0
14262,0,0
14266,1,0
14270,214,0
14274,234,0
14278,0,0
14282,0,0
14286,236,0
14290,300,0
14294,0,0
14298,0,0
14302,233,0
14306,344,0
14310,0,0
14314,0,0
14318,185,0
14322,316,0
14326,13,0
14330,0,0
14334,143,0
14338,260,0
14342,88,0
14346,0,0
14350,96,0
14354,243,0
14358,136,0
14362,0,0
14366,63,0
14370,206,0
14374,196,0
14378,0,0
14382,4,0
14386,186,0
14390,268,0
14394,0,0
14398,0,0
14402,142,0
14406,301,0
14410,33,0
14414,0,0
14418,133,0
14422,336,0
14426,31,0
14430,0,0
14434,53,0
14438,214,0
14442,2,0
14446,0,0
14450,0,0
14454,135,0
14458,0,0
14462,0,0
14466,19,0
14470,138,0
14474,36,0
14478,0,0
14482,0,0
14486,94,0
14490,116,0
14494,0,0
14498,0,0
14502,27,0
14506,115,0
14510,0,0
14514,0,0
14518,0,0
14522,139,0
14526,0,0
14530,0,0
14534,0,0
14538,116,0
14542,13,0
14546,0,0
14550,4,0
14554,228,0
14558,85,0
14562,0,0
14566,42,0
14570,280,0
14574,171,0
14578,0,0
14582,31,0
14586,339,0
14590,285,0
14594,5,0
14598,94,0
14602,309,0
14606,274,0
14610,32,0
14614,17,0
14618,233,0
14622,327,0
14626,49,0
14630,0,0
14634,110,0
14638,256,0
14642,94,0
14646,0,0
14650,7,0
14654,164,0
14658,18,0
14662,0,0
14666,0,0
14670,185,0
14674,46,0
14678,0,0
14682,0,0
14686,164,0
14690,107,0
14694,0,0
14698,16,0
14702,233,0
14706,156,0
14710,0,0
14714,0,0
14718,153,0
14722,193,0
14726,0,0
14730,0,0
14734,133,0
14738,224,0
14742,70,0
14746,0,0
14750,69,0
14754,261,0
14758,169,0
14762,0,0
14766,58,0
14770,303,0
14774,212,0
14778,0,0
14782,0,0
14786,320,0
14790,311,0
14794,0,0
14798,0,0
14802,319,0
14806,374,0
14810,0,0
14814,0,0
14818,298,0
14822,412,0
14826,11,0
14830,0,0
14834,204,0
14838,273,0
14842,41,0
14846,0,0
14850,155,0
14854,268,0
14858,92,0
14862,0,0
14866,71,0
14870,214,0
14874,74,0
14878,0,0
14882,4,0
14886,142,0
14890,178,0
14894,0,0
14898,0,0
14902,208,0
14906,369,0
14910,39,0
14914,0,0
14918,216,0
14922,344,0
14926,0,0
14930,0,0
14934,11,0
14938,79,0
14942,0,0
14946,0,0
14950,58,0
14954,210,0
14958,0,0
14962,0,0
14966,63,0
14970,255,0
14974,77,0
14978,0,0
14982,42,0
14986,258,0
14990,213,0
14994,0,0
14998,53,0
15002,287,0
15006,329,0
15010,27,0
15014,6,0
15018,226,0
15022,390,0
15026,72,0
15030,0,0
15034,185,0
15038,388,0
15042,107,0
15046,0,0
15050,71,0
15054,296,0
15058,64,0
15062,0,0
15066,12,0
15070,229,0
15074,24,0
15078,0,0
15082,21,0
15086,322,0
15090,258,0
15094,197,0
15098,1420,0
15102,2970,1
15106,2663,1
15110,1479,0
15114,1752,0
15118,2637,1
15122,2380,1
15126,1211,0
15130,1212,0
15134,2093,1
15138,2096,1
15142,1052,0
15146,719,0
15150,1656,0
15154,1950,1
15158,932,0
15162,298,0
15166,1147,0
15170,1730,0
15174,842,0
15178,20,0
15182,798,0
15186,1563,0
15190,890,0
15194,0,0
15198,512,0
15202,1431,0
15206,946,0
15210,0,0
15214,263,0
15218,1229,0
15222,985,0
15226,0,0
15230,45,0
15234,954,0
15238,1020,0
15242,54,0
15246,0,0
15250,857,0
15254,1090,0
15258,223,0
15262,0,0
15266,600,0
15270,1080,0
15274,374,0
15278,0,0
15282,244,0
15286,855,0
15290,569,0
15294,0,0
15298,242,0
15302,1072,0
15306,780,0
15310,0,0
15314,37,0
15318,906,0
15322,920,0
15326,0,0
15330,0,0
15334,855,0
15338,964,0
15342,5,0
15346,0,0
15350,622,0
15354,915,0
15358,76,0
15362,0,0
15366,551,0
15370,957,0
15374,274,0
15378,0,0
15382,117,0
15386,227,0
15390,274,0
15394,13,0
15398,0,0
15402,53,0
15406,272,0
15410,54,0
15414,0,0
15418,19,0
15422,335,0
15426,136,0
15430,0,0
15434,0,0
15438,310,0
15442,200,0
15446,0,0
15450,0,0
15454,246,0
15458,253,0
15462,0,0
15466,0,0
15470,242,0
15474,221,0
15478,0,0
15482,43,0
15486,542,0
15490,544,0
15494,4,0
15498,28,0
15502,551,0
15506,606,0
15510,32,0
15514,0,0
15518,418,0
15522,656,0
15526,125,0
15530,0,0
15534,264,0
15538,603,0
15542,261,0
15546,0,0
15550,293,0
15554,724,0
15558,301,0
15562,0,0
15566,237,0
15570,782,0
15574,347,0
15578,0,0
15582,171,0
15586,773,0
15590,494,0
15594,0,0
15598,73,0
15602,769,0
15606,599,0
15610,0,0
15614,45,0
15618,771,0
15622,712,0
15626,0,0
15630,0,0
15634,717,0
15638,795,0
15642,2,0
15646,0,0
15650,677,0
15654,912,0
15658,122,0
15662,0,0
15666,595,0
15670,1019,0
15674,257,0
15678,0,0
15682,500,0
15686,1045,0
15690,478,0
15694,0,0
15698,321,0
15702,1084,0
15706,672,0
15710,0,0
15714,153,0
15718,1064,0
15722,871,0
15726,0,0
15730,35,0
15734,974,0
15738,1016,0
15742,288,0
15746,2,0
15750,91,0
15754,254,0
15758,138,0
15762,0,0
15766,470,0
15770,940,0
15774,145,0
15778,0,0
15782,561,0
15786,1113,0
15790,437,0
15794,0,0
15798,404,0
15802,1151,0
15806,690,0
15810,0,0
15814,180,0
15818,942,0
15822,916,0
15826,6,0
15830,0,0
15834,538,0
15838,718,0
15842,169,0
15846,0,0
15850,50,0
15854,163,0
15858,0,0
15862,0,0
15866,0,0
15870,108,0
15874,0,0
15878,0,0
15882,0,0
15886,108,0
15890,0,0
15894,0,0
15898,0,0
15902,139,0
15906,111,0
15910,0,0
15914,0,0
15918,136,0
15922,224,0
15926,0,0
15930,0,0
15934,80,0
15938,196,0
15942,6,0
15946,0,0
15950,0,0
15954,192,0
15958,99,0
15962,0,0
15966,0,0
15970,234,0
15974,169,0
15978,0,0
15982,0,0
15986,219,0
15990,193,0
15994,0,0
15998,0,0
16002,161,0
16006,155,0
16010,0,0
16014,0,0
16018,132,0
16022,200,0
16026,0,0
16030,0,0
16034,64,0
16038,189,0
16042,13,0
16046,0,0
16050,9,0
16054,155,0
16058,123,0
16062,0,0
16066,0,0
16070,104,0
16074,125,0
16078,0,0
16082,0,0
16086,13,0
16090,28,0
16094,0,0
16098,0,0
16102,32,0
16106,177,0
16110,0,0
16114,0,0
16118,74,0
16122,236,0
16126,0,0
16130,0,0
16134,65,0
16138,255,0
16142,25,0
16146,0,0
16150,50,0
16154,293,0
16158,237,0
16162,0,0
16166,57,0
16170,268,0
16174,275,0
16178,0,0
16182,5,0
16186,183,0
16190,288,0
16194,70,0
16198,0,0
16202,137,0
16206,317,0
16210,11,0
16214,0,0
16218,31,0
16222,230,0
16226,38,0
16230,0,0
16234,75,0
16238,393,0
16242,166,0
16246,0,0
16250,0,0
16254,166,0
16258,38,0
16262,0,0
16266,0,0
16270,160,0
16274,65,0
16278,0,0
16282,0,0
16286,0,0
16290,0,0
16294,0,0
16298,0,0
16302,4,0
16306,85,0
16310,0,0
16314,0,0
16318,92,0
16322,268,0
16326,68,0
16330,0,0
16334,18,0
16338,276,0
16342,121,0
16346,0,0
16350,0,0
16354,250,0
16358,268,0
16362,0,0
16366,0,0
16370,242,0
16374,233,0
16378,0,0
16382,0,0
16386,149,0
16390,246,0
16394,0,0
16398,0,0
16402,115,0
16406,229,0
16410,0,0
16414,0,0
16418,59,0
16422,220,0
16426,0,0
16430,0,0
16434,12,0
16438,283,0
16442,173,0
16446,0,0
16450,0,0
16454,131,0
16458,191,0
16462,0,0
16466,0,0
16470,112,0
16474,256,0
16478,0,0
16482,0,0
16486,176,0
16490,441,0
16494,120,0
16498,0,0
16502,83,0
16506,350,0
16510,86,0
16514,0,0
16518,67,0
16522,355,0
16526,168,0
16530,0,0
16534,13,0
16538,310,0
16542,249,0
16546,18,0
16550,0,0
16554,156,0
16558,253,0
16562,19,0
16566,0,0
16570,66,0
16574,219,0
16578,33,0
16582,0,0
16586,8,0
16590,156,0
16594,13,0
16598,0,0
16602,0,0
16606,186,0
16610,43,0
16614,0,0
16618,0,0
16622,181,0
16626,99,0
16630,0,0
16634,0,0
16638,159,0
16642,139,0
16646,0,0
16650,0,0
16654,85,0
16658,185,0
16662,0,0
16666,0,0
16670,8,0
16674,100,0
16678,0,0
16682,0,0
16686,0,0
16690,81,0
16694,0,0
16698,0,0
16702,0,0
16706,116,0
16710,58,0
16714,0,0
16718,0,0
16722,154,0
16726,148,0
16730,0,0
16734,0,0
16738,172,0
16742,229,0
16746,0,0
16750,0,0
16754,142,0
16758,348,0
16762,78,0
16766,0,0
16770,129,0
16774,355,0
16778,112,0
16782,0,0
16786,81,0
16790,305,0
16794,137,0
16798,0,0
16802,19,0
16806,243,0
16810,135,0
16814,0,0
16818,7,0
16822,221,0
16826,131,0
16830,0,0
16834,0,0
16838,139,0
16842,195,0
16846,2,0
16850,0,0
16854,65,0
16858,296,0
16862,90,0
16866,0,0
16870,96,0
16874,388,0
16878,149,0
16882,0,0
16886,45,0
16890,284,0
16894,99,0
16898,0,0
16902,0,0
16906,247,0
16910,100,0
16914,0,0
16918,0,0
16922,246,0
16926,173,0
16930,0,0
16934,0,0
16938,198,0
16942,221,0
16946,20,0
16950,0,0
16954,111,0
16958,284,0
16962,115,0
16966,0,0
16970,69,0
16974,333,0
16978,163,0
16982,0,0
16986,13,0
16990,291,0
16994,199,0
16998,0,0
17002,0,0
17006,280,0
17010,208,0
17014,0,0
17018,0,0
17022,270,0
17026,221,0
17030,0,0
17034,0,0
17038,212,0
17042,205,0
17046,0,0
17050,0,0
17054,101,0
17058,195,0
17062,0,0
17066,0,0
17070,32,0
17074,188,0
17078,0,0
17082,0,0
17086,3,0
17090,170,0
17094,85,0
17098,0,0
17102,0,0
17106,200,0
17110,140,0
17114,0,0
17118,0,0
17122,201,0
17126,205,0
17130,0,0
17134,0,0
17138,199,0
17142,241,0
17146,0,0
17150,0,0
17154,116,0
17158,273,0
17162,10,0
17166,0,0
17170,77,0
17174,282,0
17178,37,0
17182,0,0
17186,32,0
17190,231,0
17194,106,0
17198,0,0
17202,7,0
17206,241,0
17210,155,0
17214,0,0
17218,0,0
17222,207,0
17226,208,0
17230,0,0
17234,0,0
17238,166,0
17242,254,0
17246,2,0
17250,0,0
17254,95,0
17258,310,0
17262,75,0
17266,0,0
17270,72,0
17274,330,0
17278,90,0
17282,0,0
17286,63,0
17290,329,0
17294,134,0
17298,0,0
17302,0,0
17306,283,0
17310,138,0
17314,0,0
17318,0,0
17322,228,0
17326,173,0
17330,0,0
17334,0,0
17338,198,0
17342,227,0
17346,8,0
17350,0,0
17354,116,0
17358,302,0
17362,97,0
17366,0,0
17370,55,0
17374,336,0
17378,133,0
17382,0,0
17386,4,0
17390,310,0
17394,189,0
17398,0,0
17402,0,0
17406,309,0
17410,196,0
17414,0,0
17418,0,0
17422,287,0
17426,215,0
17430,0,0
17434,0,0
17438,259,0
17442,247,0
17446,0,0
17450,0,0
17454,156,0
17458,290,0
17462,84,0
17466,0,0
17470,76,0
17474,299,0
17478,126,0
17482,0,0
17486,12,0
17490,253,0
17494,180,0
17498,0,0
17502,0,0
17506,275,0
17510,212,0
17514,0,0
17518,0,0
17522,261,0
17526,246,0
17530,0,0
17534,0,0
17538,257,0
17542,314,0
17546,0,0
17550,0,0
17554,173,0
17558,334,0
17562,71,0
17566,0,0
17570,104,0
17574,329,0
17578,95,0
17582,0,0
17586,71,0
17590,266,0
17594,139,0
17598,0,0
17602,13,0
17606,263,0
17610,170,0
17614,0,0
17618,0,0
17622,224,0
17626,228,0
17630,0,0
17634,0,0
17638,200,0
17642,288,0
17646,12,0
17650,0,0
17654,125,0
17658,338,0
17662,99,0
17666,0,0
17670,90,0
17674,358,0
17678,86,0
17682,0,0
17686,63,0
17690,310,0
17694,124,0
17698,0,0
17702,12,0
17706,296,0
17710,151,0
17714,0,0
17718,1,0
17722,236,0
17726,168,0
17730,0,0
17734,0,0
17738,202,0
17742,213,0
17746,0,0
17750,0,0
17754,101,0
17758,257,0
17762,55,0
17766,0,0
17770,42,0
17774,316,0
17778,98,0
17782,0,0
17786,1,0
17790,292,0
17794,150,0
17798,0,0
17802,0,0
17806,283,0
17810,158,0
17814,0,0
17818,0,0
17822,279,0
17826,196,0
17830,0,0
17834,0,0
17838,262,0
17842,248,0
17846,0,0
17850,0,0
17854,169,0
17858,289,0
17862,71,0
17866,0,0
17870,85,0
17874,307,0
17878,108,0
17882,0,0
17886,22,0
17890,251,0
17894,143,0
17898,0,0
17902,0,0
17906,265,0
17910,191,0
17914,0,0
17918,0,0
17922,255,0
17926,216,0
17930,0,0
17934,0,0
17938,248,0
17942,283,0
17946,0,0
17950,0,0
17954,183,0
17958,315,0
17962,31,0
17966,0,0
17970,115,0
17974,318,0
17978,61,0
17982,0,0
17986,76,0
17990,251,0
17994,110,0
17998,0,0
18002,20,0
18006,254,0
18010,169,0
18014,0,0
18018,0,0
18022,228,0
18026,210,0
18030,0,0
18034,0,0
18038,205,0
18042,275,0
18046,0,0
18050,0,0
18054,170,0
18058,331,0
18062,42,0
18066,0,0
18070,103,0
18074,367,0
18078,60,0
18082,0,0
18086,68,0
18090,312,0
18094,116,0
18098,0,0
18102,34,0
18106,304,0
18110,156,0
18114,0,0
18118,9,0
18122,253,0
18126,183,0
18130,0,0
18134,0,0
18138,219,0
18142,255,0
18146,2,0
18150,0,0
18154,154,0
18158,334,0
18162,78,0
18166,0,0
18170,59,0
18174,387,0
18178,123,0
18182,0,0
18186,38,0
18190,348,0
18194,162,0
18198,0,0
18202,19,0
18206,353,0
18210,187,0
18214,0,0
18218,9,0
18222,328,0
18226,205,0
18230,0,0
18234,0,0
18238,283,0
18242,272,0
18246,0,0
18250,0,0
18254,188,0
18258,327,0
18262,76,0
18266,0,0
18270,83,0
18274,354,0
18278,132,0
18282,0,0
18286,43,0
18290,346,0
18294,187,0
18298,0,0
18302,0,0
18306,338,0
18310,237,0
18314,0,0
18318,0,0
18322,319,0
18326,248,0
18330,0,0
18334,0,0
18338,292,0
18342,273,0
18346,0,0
18350,0,0
18354,233,0
18358,306,0
18362,17,0
18366,0,0
18370,132,0
18374,341,0
18378,72,0
18382,0,0
18386,50,0
18390,304,0
18394,157,0
18398,0,0
18402,3,0
18406,277,0
18410,217,0
18414,0,0
18418,0,0
18422,264,0
18426,234,0
18430,0,0
18434,0,0
18438,263,0
18442,303,0
18446,0,0
18450,0,0
18454,214,0
18458,346,0
18462,24,0
18466,0,0
18470,118,0
18474,360,0
18478,53,0
18482,0,0
18486,98,0
18490,325,0
18494,94,0
18498,0,0
18502,44,0
18506,278,0
18510,156,0
18514,0,0
18518,3,0
18522,252,0
18526,198,0
18530,0,0
18534,0,0
18538,213,0
18542,273,0
18546,0,0
18550,0,0
18554,154,0
18558,318,0
18562,41,0
18566,0,0
18570,90,0
18574,380,0
18578,81,0
18582,0,0
18586,83,0
18590,387,0
18594,115,0
18598,0,0
18602,37,0
18606,336,0
18610,153,0
18614,0,0
18618,5,0
18622,304,0
18626,189,0
18630,0,0
18634,0,0
18638,246,0
18642,240,0
18646,0,0
18650,0,0
18654,174,0
18658,278,0
18662,46,0
18666,0,0
18670,65,0
18674,339,0
18678,94,0
18682,0,0
18686,41,0
18690,387,0
18694,190,0
18698,0,0
18702,7,0
18706,358,0
18710,235,0
18714,0,0
18718,9,0
18722,345,0
18726,246,0
18730,0,0
18734,0,0
18738,272,0
18742,213,0
18746,0,0
18750,0,0
18754,217,0
18758,269,0
18762,8,0
18766,0,0
18770,110,0
18774,325,0
18778,80,0
18782,0,0
18786,40,0
18790,320,0
18794,151,0
18798,0,0
18802,5,0
18806,290,0
18810,203,0
18814,0,0
18818,0,0
18822,289,0
18826,239,0
18830,0,0
18834,0,0
18838,271,0
18842,292,0
18846,0,0
18850,0,0
18854,212,0
18858,305,0
18862,0,0
18866,0,0
18870,103,0
18874,326,0
18878,34,0
18882,0,0
18886,83,0
18890,288,0
18894,86,0
18898,0,0
18902,36,0
18906,256,0
18910,130,0
18914,0,0
18918,3,0
18922,226,0
18926,170,0
18930,0,0
18934,0,0
18938,206,0
18942,287,0
18946,0,0
18950,0,0
18954,183,0
18958,310,0
18962,26,0
18966,0,0
18970,112,0
18974,370,0
18978,63,0
18982,0,0
18986,81,0
18990,351,0
18994,97,0
18998,0,0
19002,42,0
19006,289,0
19010,142,0
19014,0,0
19018,12,0
19022,251,0
19026,159,0
19030,0,0
19034,0,0
19038,226,0
19042,234,0
19046,0,0
19050,0,0
19054,184,0
19058,314,0
19062,89,0
19066,0,0
19070,72,0
19074,365,0
19078,109,0
19082,0,0
19086,75,0
19090,355,0
19094,140,0
19098,0,0
19102,36,0
19106,331,0
19110,173,0
19114,0,0
19118,8,0
19122,304,0
19126,172,0
19130,0,0
19134,0,0
19138,260,0
19142,219,0
19146,0,0
19150,0,0
19154,188,0
19158,251,0
19162,45,0
19166,0,0
19170,64,0
19174,299,0
19178,84,0
19182,0,0
19186,47,0
19190,302,0
19194,132,0
19198,0,0
19202,0,0
19206,294,0
19210,175,0
19214,0,0
19218,0,0
19222,282,0
19226,185,0
19230,0,0
19234,0,0
19238,272,0
19242,216,0
19246,0,0
19250,0,0
19254,224,0
19258,249,0
19262,1,0
19266,0,0
19270,112,0
19274,303,0
19278,67,0
19282,0,0
19286,54,0
19290,281,0
19294,115,0
19298,0,0
19302,1,0
19306,248,0
19310,171,0
19314,0,0
19318,0,0
19322,250,0
19326,191,0
19330,0,0
19334,0,0
19338,249,0
19342,247,0
19346,0,0
19350,0,0
19354,209,0
19358,267,0
19362,0,0
19366,0,0
19370,115,0
19374,286,0
19378,10,0
19382,0,0
19386,75,0
19390,245,0
19394,37,0
19398,0,0
19402,35,0
19406,232,0
19410,138,0
19414,0,0
19418,0,0
19422,236,0
19426,194,0
19430,0,0
19434,0,0
19438,214,0
19442,262,0
19446,0,0
19450,0,0
19454,180,0
19458,282,0
19462,7,0
19466,0,0
19470,110,0
19474,348,0
19478,46,0
19482,0,0
19486,95,0
19490,334,0
19494,100,0
19498,0,0
19502,44,0
19506,281,0
19510,124,0
19514,0,0
19518,25,0
19522,257,0
19526,156,0
19530,0,0
19534,0,0
19538,222,0
19542,218,0
19546,0,0
19550,0,0
19554,165,0
19558,270,0
19562,41,0
19566,0,0
19570,69,0
19574,332,0
19578,88,0
19582,0,0
19586,48,0
19590,337,0
19594,99,0
19598,0,0
19602,35,0
19606,315,0
19610,157,0
19614,0,0
19618,22,0
19622,349,0
19626,249,0
19630,0,0
19634,11,0
19638,248,0
19642,202,0
19646,0,0
19650,0,0
19654,177,0
19658,217,0
19662,6,0
19666,0,0
19670,72,0
19674,260,0
19678,60,0
19682,0,0
19686,30,0
19690,289,0
19694,106,0
19698,0,0
19702,0,0
19706,272,0
19710,161,0
19714,0,0
19718,0,0
19722,292,0
19726,175,0
19730,0,0
19734,0,0
19738,279,0
19742,217,0
19746,0,0
19750,0,0
19754,236,0
19758,240,0
19762,5,0
19766,0,0
19770,109,0
19774,274,0
19778,63,0
19782,0,0
19786,49,0
19790,269,0
19794,118,0
19798,0,0
19802,1,0
19806,240,0
19810,160,0
19814,0,0
19818,0,0
19822,258,0
19826,200,0
19830,0,0
19834,0,0
19838,255,0
19842,239,0
19846,0,0
19850,0,0
19854,221,0
19858,254,0
19862,0,0
19866,0,0
19870,135,0
19874,283,0
19878,33,0
19882,0,0
19886,99,0
19890,284,0
19894,74,0
19898,0,0
19902,37,0
19906,249,0
19910,149,0
19914,0,0
19918,0,0
19922,246,0
19926,201,0
19930,0,0
19934,0,0
19938,224,0
19942,221,0
19946,0,0
19950,0,0
19954,219,0
19958,300,0
19962,3,0
19966,0,0
19970,140,0
19974,331,0
19978,31,0
19982,0,0
19986,84,0
19990,290,0
19994,44,0
19998,0,0
20002,55,0
20006,244,0
20010,100,0
20014,0,0
20018,6,0
20022,239,0
20026,149,0
20030,0,0
20034,0,0
20038,224,0
20042,233,0
20046,0,0
20050,0,0
20054,181,0
20058,287,0
20062,32,0
20066,0,0
20070,103,0
20074,331,0
20078,89,0
20082,0,0
20086,84,0
20090,348,0
20094,86,0
20098,0,0
20102,58,0
20106,306,0
20110,118,0
20114,0,0
20118,13,0
20122,286,0
20126,154,0
20130,0,0
20134,7,0
20138,227,0
20142,182,0
20146,4,0
20150,0,0
20154,190,0
20158,230,0
20162,24,0
20166,0,0
20170,106,0
20174,318,0
20178,115,0
20182,0,0
20186,42,0
20190,344,0
20194,138,0
20198,0,0
20202,11,0
20206,295,0
20210,152,0
20214,0,0
20218,5,0
20222,296,0
20226,159,0
20230,0,0
20234,1,0
20455,246,0
20458,272,0
20462,0,0
20466,0,0
20470,157,0
20474,312,0
20478,57,0
20482,0,0
20486,111,0
20490,299,0
20494,63,0
20498,0,0
20502,61,0
20506,247,0
20510,122,0
20514,0,0
20518,16,0
20522,243,0
20526,173,0
20530,0,0
20534,0,0
20538,211,0
20542,230,0
20546,0,0
20550,0,0
20554,218,0
20558,280,0
20562,15,0
20566,0,0
20570,144,0
20574,327,0
20578,50,0
20582,0,0
20586,90,0
20590,332,0
20594,61,0
20598,0,0
20602,67,0
20606,269,0
20610,105,0
20614,0,0
20618,29,0
20622,247,0
20626,137,0
20630,0,0
20634,0,0
20638,212,0
20642,199,0
20646,0,0
20650,0,0
20654,192,0
20658,268,0
20662,15,0
20666,0,0
20670,112,0
20674,325,0
20678,84,0
20682,0,0
20686,86,0
20690,341,0
20694,91,0
20698,0,0
20702,63,0
20706,296,0
20710,117,0
20714,0,0
20718,4,0
20722,282,0
20726,144,0
20730,0,0
20734,9,0
20738,234,0
20742,176,0
20746,0,0
20750,0,0
20754,196,0
20758,221,0
20762,8,0
20766,0,0
20770,114,0
20774,302,0
20778,102,0
20782,0,0
20786,52,0
20790,335,0
20794,122,0
20798,0,0
20802,14,0
20806,292,0
20810,141,0
20814,0,0
20818,8,0
20822,302,0
20826,165,0
20830,0,0
20834,3,0
20838,275,0
20842,175,0
20846,0,0
20850,0,0
20854,225,0
20858,220,0
20862,0,0
20866,0,0
20870,131,0
20874,264,0
20878,99,0
20882,0,0
20886,65,0
20890,295,0
20894,122,0
20898,0,0
20902,22,0
20906,281,0
20910,165,0
20914,0,0
20918,0,0
20922,295,0
20926,199,0
20930,0,0
20934,0,0
20938,266,0
20942,195,0
20946,0,0
20950,0,0
20954,253,0
20958,218,0
20962,0,0
20966,0,0
20970,171,0
20974,266,0
20978,43,0
20982,0,0
20986,100,0
20990,296,0
20994,103,0
20998,0,0
21002,24,0
21006,245,0
21010,165,0
21014,0,0
21018,0,0
21022,252,0
21026,204,0
21030,0,0
21034,0,0
21038,258,0
21042,232,0
21046,0,0
21050,0,0
21054,252,0
21058,277,0
21062,0,0
21066,0,0
21070,173,0
21074,303,0
21078,45,0
21082,0,0
21086,118,0
21090,302,0
21094,57,0
21098,0,0
21102,73,0
21106,247,0
21110,104,0
21114,0,0
21118,21,0
21122,248,0
21126,174,0
21130,0,0
21134,0,0
21138,212,0
21142,220,0
21146,0,0
21150,0,0
21154,204,0
21158,276,0
21162,1,0
21166,0,0
21170,160,0
21174,327,0
21178,51,0
21182,0,0
21186,119,0
21190,350,0
21194,61,0
21198,0,0
21202,72,0
21206,304,0
21210,100,0
21214,0,0
21218,33,0
21222,250,0
21226,137,0
21230,0,0
21234,4,0
21238,229,0
21242,174,0
21246,0,0
21250,0,0
21254,204,0
21258,254,0
21262,9,0
21266,0,0
21270,120,0
21274,317,0
21278,92,0
21282,0,0
21286,60,0
21290,346,0
21294,89,0
21298,0,0
21302,61,0
21306,305,0
21310,121,0
21314,0,0
21318,20,0
21322,295,0
21326,151,0
21330,0,0
21334,4,0
21338,260,0
21342,167,0
21346,0,0
21350,0,0
21354,209,0
21358,217,0
21362,1,0
21366,0,0
21370,136,0
21374,276,0
21378,82,0
21382,0,0
21386,59,0
21390,331,0
21394,109,0
21398,0,0
21402,15,0
21406,300,0
21410,166,0
21414,0,0
21418,4,0
21422,300,0
21426,169,0
21430,0,0
21434,4,0
21438,276,0
21442,171,0
21446,0,0
21450,0,0
21454,250,0
21458,216,0
21462,0,0
21466,0,0
21470,164,0
21474,260,0
21478,62,0
21482,0,0
21486,61,0
21490,282,0
21494,94,0
21498,0,0
21502,27,0
21506,267,0
21510,158,0
21514,0,0
21518,0,0
21522,284,0
21526,195,0
21530,0,0
21534,0,0
21538,272,0
21542,196,0
21546,0,0
21550,0,0
21554,257,0
21558,246,0
21562,0,0
21566,0,0
21570,190,0
21574,275,0
21578,25,0
21582,0,0
21586,109,0
21590,297,0
21594,70,0
21598,0,0
21602,68,0
21606,252,0
21610,138,0
21614,0,0
21618,0,0
21622,243,0
21626,190,0
21630,0,0
21634,0,0
21638,244,0
21642,210,0
21646,0,0
21650,0,0
21654,242,0
21658,267,0
21662,0,0
21666,0,0
21670,182,0
21674,301,0
21678,23,0
21682,0,0
21686,109,0
21690,312,0
21694,50,0
21698,0,0
21702,72,0
21706,260,0
21710,89,0
21714,0,0
21718,18,0
21722,245,0
21726,162,0
21730,0,0
21734,2,0
21738,222,0
21742,203,0
21746,0,0
21750,0,0
21754,213,0
21758,265,0
21762,0,0
21766,0,0
21770,169,0
21774,315,0
21778,39,0
21782,0,0
21786,106,0
21790,345,0
21794,47,0
21798,0,0
21802,75,0
21806,307,0
21810,100,0
21814,0,0
21818,54,0
21822,264,0
21826,137,0
21830,0,0
21834,7,0
21838,229,0
21842,156,0
21846,0,0
21850,0,0
21854,211,0
21858,245,0
21862,1,0
21866,0,0
21870,142,0
21874,303,0
21878,73,0
21882,0,0
21886,60,0
21890,343,0
21894,84,0
21898,0,0
21902,58,0
21906,341,0
21910,105,0
21914,0,0
21918,32,0
21922,299,0
21926,137,0
21930,0,0
21934,4,0
21938,272,0
21942,158,0
21946,0,0
21950,0,0
21954,223,0
21958,202,0
21962,0,0
21966,0,0
21970,150,0
21974,254,0
21978,64,0
21982,0,0
21986,57,0
21990,321,0
21994,108,0
21998,0,0
22002,26,0
22006,343,0
22010,146,0
22014,0,0
22018,0,0
22022,280,0
22026,176,0
22030,0,0
22034,0,0
22038,277,0
22042,165,0
22046,0,0
22050,0,0
22054,259,0
22058,212,0
22062,0,0
22066,0,0
22070,200,0
22074,251,0
22078,40,0
22082,0,0
22086,70,0
22090,284,0
22094,87,0
22098,0,0
22102,35,0
22106,286,0
22110,130,0
22114,0,0
22118,0,0
22122,272,0
22126,183,0
22130,0,0
22134,0,0
22138,271,0
22142,205,0
22146,0,0
22150,0,0
22154,255,0
22158,249,0
22162,0,0
22166,0,0
22170,202,0
22174,261,0
22178,6,0
22182,0,0
22186,119,0
22190,292,0
22194,33,0
22198,0,0
22202,87,0
22206,286,0
22210,110,0
22214,0,0
22218,7,0
22222,242,0
22226,174,0
22230,0,0
22234,0,0
22238,240,0
22242,197,0
22246,0,0
22250,0,0
22254,226,0
22258,270,0
22262,0,0
22266,0,0
22270,197,0
22274,303,0
22278,10,0
22282,0,0
22286,108,0
22290,341,0
22294,42,0
22298,0,0
22302,80,0
22306,300,0
22310,71,0
22314,0,0
22318,42,0
22322,248,0
22326,132,0
22330,0,0
22334,10,0
22338,237,0
22342,159,0
22346,0,0
22350,0,0
22354,211,0
22358,272,0
22362,1,0
22366,0,0
22370,161,0
22374,296,0
22378,56,0
22382,0,0
22386,81,0
22390,340,0
22394,59,0
22398,0,0
22402,76,0
22406,336,0
22410,87,0
22414,0,0
22418,38,0
22422,301,0
22426,127,0
22430,0,0
22434,7,0
22438,252,0
22442,174,0
22446,0,0
22450,0,0
22454,215,0
22458,199,0
22462,0,0
22466,0,0
22470,165,0
22474,251,0
22478,47,0
22482,0,0
22486,65,0
22490,320,0
22494,97,0
22498,0,0
22502,33,0
22506,315,0
22510,143,0
22514,0,0
22518,7,0
22522,293,0
22526,149,0
22530,0,0
22534,3,0
22538,291,0
22542,153,0
22546,0,0
22550,0,0
22554,260,0
22558,200,0
22562,0,0
22566,0,0
22570,186,0
22574,238,0
22578,28,0
22582,0,0
22586,75,0
22590,281,0
22594,84,0
22598,0,0
22602,36,0
22606,274,0
22610,136,0
22614,0,0
22618,2,0
22622,277,0
22626,186,0
22630,0,0
22634,0,0
22638,286,0
22642,196,0
22646,0,0
22650,0,0
22654,265,0
22658,237,0
22662,0,0
22666,0,0
22670,224,0
22674,242,0
22678,0,0
22682,0,0
22686,117,0
22690,298,0
22694,55,0
22698,0,0
22702,66,0
22706,279,0
22710,116,0
22714,0,0
22718,7,0
22722,242,0
22726,171,0
22730,0,0
22734,0,0
22738,238,0
22742,193,0
22746,0,0
22750,0,0
22754,246,0
22758,259,0
22762,0,0
22766,0,0
22770,221,0
22774,290,0
22778,0,0
22782,0,0
22786,116,0
22790,331,0
22794,41,0
22798,0,0
22802,101,0
22806,289,0
22810,132,0
22814,0,0
22818,51,0
22822,250,0
22826,122,0
22830,0,0
22834,5,0
22838,233,0
22842,167,0
22846,0,0
22850,0,0
22854,205,0
22858,245,0
22862,0,0
22866,0,0
22870,164,0
22874,286,0
22878,31,0
22882,0,0
22886,102,0
22890,332,0
22894,57,0
22898,0,0
22902,92,0
22906,329,0
22910,75,0
22914,0,0
22918,45,0
22922,289,0
22926,123,0
22930,0,0
22934,10,0
22938,254,0
22942,134,0
22946,0,0
22950,0,0
22954,215,0
22958,190,0
22962,0,0
22966,0,0
22970,172,0
22974,249,0
22978,32,0
22982,0,0
22986,71,0
22990,322,0
22994,105,0
22998,0,0
23002,41,0
23006,323,0
23010,117,0
23014,0,0
23018,25,0
23022,293,0
23026,139,0
23030,0,0
23034,5,0
23038,292,0
23042,142,0
23046,0,0
23050,0,0
23054,268,0
23058,191,0
23062,0,0
23066,0,0
23070,192,0
23074,217,0
23078,21,0
23082,0,0
23086,91,0
23090,272,0
23094,84,0
23098,0,0
23102,50,0
23106,299,0
23110,117,0
23114,0,0
23118,1,0
23122,284,0
23126,173,0
23130,0,0
23134,0,0
23138,283,0
23142,192,0
23146,0,0
23150,0,0
23154,264,0
23158,211,0
23162,0,0
23166,0,0
23170,232,0
23174,228,0
23178,0,0
23182,0,0
23186,137,0
23190,276,0
23194,61,0
23198,0,0
23202,67,0
23206,273,0
23210,103,0
23214,0,0
23218,21,0
23222,242,0
23226,166,0
23230,0,0
23234,0,0
23238,247,0
23242,193,0
23246,0,0
23250,0,0
23254,243,0
23258,244,0
23262,0,0
23266,0,0
23270,226,0
23274,277,0
23278,0,0
23282,0,0
23286,142,0
23290,305,0
23294,52,0
23298,0,0
23302,101,0
23306,293,0
23310,65,0
23314,0,0
23318,61,0
23322,246,0
23326,108,0
23330,0,0
23334,1,0
23338,238,0
23342,159,0
23346,0,0
23350,0,0
23354,204,0
23358,219,0
23362,0,0
23366,0,0
23370,174,0
23374,268,0
23378,17,0
23382,0,0
23386,98,0
23390,318,0
23394,82,0
23398,0,0
23402,74,0
23406,326,0
23410,79,0
23414,0,0
23418,48,0
23422,297,0
23426,108,0
23430,0,0
23434,14,0
23438,274,0
23442,141,0
23446,0,0
23450,0,0
23454,225,0
23458,175,0
23462,0,0
23466,0,0
23470,179,0
23474,218,0
23478,15,0
23482,0,0
23486,93,0
23490,279,0
23494,85,0
23498,0,0
23502,70,0
23506,310,0
23510,122,0
23514,0,0
23518,5,0
23522,283,0
23526,158,0
23530,0,0
23534,0,0
23538,284,0
23542,177,0
23546,0,0
23550,0,0
23554,263,0
23558,185,0
23562,0,0
23566,0,0
23570,231,0
23574,219,0
23578,0,0
23582,0,0
23586,135,0
23590,272,0
23594,69,0
23598,0,0
23602,71,0
23606,262,0
23610,98,0
23614,0,0
23618,18,0
23622,228,0
23626,154,0
23630,0,0
23634,0,0
23638,257,0
23642,185,0
23646,0,0
23650,0,0
23654,248,0
23658,227,0
23662,0,0
23666,0,0
23670,232,0
23674,264,0
23678,0,0
23682,0,0
23686,153,0
23690,288,0
23694,48,0
23698,0,0
23702,115,0
23706,300,0
23710,66,0
23714,0,0
23718,59,0
23722,239,0
23726,110,0
23730,0,0
23734,10,0
23738,236,0
23742,161,0
23746,0,0
23750,3,0
23754,213,0
23758,211,0
23762,0,0
23766,0,0
23770,184,0
23774,263,0
23778,4,0
23782,0,0
23786,124,0
23790,310,0
23794,78,0
23798,0,0
23802,89,0
23806,328,0
23810,59,0
23814,0,0
23818,54,0
23822,285,0
23826,103,0
23830,0,0
23834,3,0
23838,271,0
23842,139,0
23846,0,0
23850,0,0
23854,220,0
23858,163,0
23862,0,0
23866,0,0
23870,193,0
23874,221,0
23878,8,0
23882,0,0
23886,111,0
23890,282,0
23894,84,0
23898,0,0
23902,52,0
23906,322,0
23910,87,0
23914,0,0
23918,17,0
23922,280,0
23926,150,0
23930,0,0
23934,10,0
23938,287,0
23942,157,0
23946,0,0
23950,0,0
23954,266,0
23958,167,0
23962,0,0
23966,0,0
23970,234,0
23974,211,0
23978,1,0
23982,0,0
23986,136,0
23990,257,0
23994,73,0
23998,0,0
24002,61,0
24006,275,0
24010,93,0
24014,0,0
24018,12,0
24022,238,0
24026,148,0
24030,0,0
24034,0,0
24038,273,0
24042,198,0
24046,0,0
24050,0,0
24054,261,0
24058,207,0
24062,0,0
24066,0,0
24070,239,0
24074,243,0
24078,0,0
24082,0,0
24086,173,0
24090,261,0
24094,23,0
24098,0,0
24102,103,0
24106,278,0
24110,49,0
24114,0,0
24118,41,0
24122,231,0
24126,123,0
24130,0,0
24134,0,0
24138,229,0
24142,186,0
24146,0,0
24150,0,0
24154,209,0
24158,206,0
24162,0,0
24166,0,0
24170,219,0
24174,260,0
24178,0,0
24182,0,0
24186,164,0
24190,310,0
24194,38,0
24198,0,0
24202,104,0
24206,326,0
24210,55,0
24214,0,0
24218,62,0
24222,253,0
24226,96,0
24230,0,0
24234,24,0
24238,247,0
24242,126,0
24246,0,0
24250,6,0
24254,215,0
24258,157,0
24262,0,0
24266,0,0
24270,194,0
24274,229,0
24278,5,0
24282,0,0
24286,121,0
24290,301,0
24294,86,0
24298,0,0
24302,47,0
24306,333,0
24310,89,0
24314,0,0
24318,43,0
24322,287,0
24326,121,0
24330,0,0
24334,17,0
24338,291,0
24342,133,0
24346,0,0
24350,2,0
24354,257,0
24358,175,0
24362,0,0
24366,0,0
24370,228,0
24374,205,0
24378,0,0
24382,0,0
24386,135,0
24390,244,0
24394,66,0
24398,0,0
24402,58,0
24406,287,0
24410,89,0
24414,0,0
24418,18,0
24422,257,0
24426,137,0
24430,0,0
24434,0,0
24438,283,0
24442,187,0
24446,0,0
24450,0,0
24454,265,0
24458,200,0
24462,0,0
24466,0,0
24470,248,0
24474,225,0
24478,0,0
24482,0,0
24486,188,0
24490,257,0
24494,19,0
24498,0,0
24502,104,0
24506,279,0
24510,47,0
24514,0,0
24518,51,0
24522,231,0
24526,116,0
24530,0,0
24534,2,0
24538,231,0
24542,178,0
24546,0,0
24550,0,0
24554,220,0
24558,196,0
24562,0,0
24566,0,0
24570,227,0
24574,265,0
24578,0,0
24582,0,0
24586,178,0
24590,301,0
24594,19,0
24598,0,0
24602,97,0
24606,320,0
24610,48,0
24614,0,0
24618,77,0
24622,262,0
24626,78,0
24630,0,0
24634,34,0
24638,239,0
24642,121,0
24646,0,0
24650,0,0
24654,223,0
24658,172,0
24662,0,0
24666,0,0
24670,194,0
24674,235,0
24678,0,0
24682,0,0
24686,130,0
24690,294,0
24694,65,0
24698,0,0
24702,60,0
24706,333,0
24710,62,0
24714,0,0
24718,52,0
24722,318,0
24726,105,0
24730,0,0
24734,24,0
24738,292,0
24742,130,0
24746,0,0
24750,2,0
24754,251,0
24758,143,0
24762,0,0
24766,0,0
24770,215,0
24774,199,0
24778,0,0
24782,0,0
24786,142,0
24790,238,0
24794,58,0
24798,0,0
24802,56,0
24806,296,0
24810,80,0
24814,0,0
24818,28,0
24822,318,0
24826,134,0
24830,0,0
24834,1,0
24838,283,0
24842,166,0
24846,0,0
24850,0,0
24854,274,0
24858,188,0
24862,0,0
24866,0,0
24870,252,0
24874,209,0
24878,0,0
24882,0,0
24886,197,0
24890,248,0
24894,11,0
24898,0,0
24902,97,0
24906,285,0
24910,56,0
24914,0,0
24918,50,0
24922,276,0
24926,120,0
24930,0,0
24934,0,0
24938,237,0
24942,178,0
24946,0,0
24950,0,0
24954,244,0
24958,186,0
24962,0,0
24966,0,0
24970,258,0
24974,262,0
24978,0,0
24982,0,0
24986,196,0
24990,288,0
24994,0,0
24998,0,0
25002,106,0
25006,299,0
25010,31,0
25014,0,0
25018,89,0
25022,277,0
25026,71,0
25030,0,0
25034,42,0
25038,237,0
25042,126,0
25046,0,0
25050,1,0
25054,220,0
25058,172,0
25062,0,0
25066,0,0
25070,195,0
25074,268,0
25078,0,0
25082,0,0
25086,155,0
25090,279,0
25094,34,0
25098,0,0
25102,90,0
25106,335,0
25110,51,0
25114,0,0
25118,77,0
25122,317,0
25126,80,0
25130,0,0
25134,34,0
25138,278,0
25142,121,0
25146,0,0
25150,11,0
25154,242,0
25158,135,0
25162,0,0
25166,0,0
25170,210,0
25174,184,0
25178,0,0
25182,0,0
25186,157,0
25190,247,0
25194,40,0
25198,0,0
25202,61,0
25206,313,0
25210,79,0
25214,0,0
25218,38,0
25222,308,0
25226,132,0
25230,0,0
25234,7,0
25238,287,0
25242,148,0
25246,0,0
25250,7,0
25254,276,0
25258,149,0
25262,0,0
25266,0,0
25270,256,0
25274,196,0
25278,0,0
25282,0,0
25286,203,0
25290,226,0
25294,14,0
25298,0,0
25302,91,0
25306,277,0
25310,70,0
25314,0,0
25318,51,0
25322,259,0
25326,122,0
25330,0,0
25334,4,0
25338,244,0
25342,172,0
25346,0,0
25350,0,0
25354,265,0
25358,198,0
25362,0,0
25366,0,0
25370,257,0
25374,248,0
25378,0,0
25382,0,0
25386,210,0
25390,260,0
25394,0,0
25398,0,0
25402,125,0
25406,283,0
25410,34,0
25414,0,0
25418,112,0
25422,263,0
25426,63,0
25430,0,0
25434,35,0
25438,238,0
25442,139,0
25446,0,0
25450,0,0
25454,223,0
25458,176,0
25462,0,0
25466,0,0
25470,201,0
25474,255,0
25478,0,0
25482,0,0
25486,183,0
25490,271,0
25494,4,0
25498,0,0
25502,115,0
25506,328,0
25510,28,0
25514,0,0
25518,83,0
25522,315,0
25526,59,0
25530,0,0
25534,40,0
25538,255,0
25542,99,0
25546,0,0
25550,14,0
25554,239,0
25558,133,0
25562,0,0
25566,1,0
25570,210,0
25574,193,0
25578,0,0
25582,0,0
25586,165,0
25590,254,0
25594,43,0
25598,0,0
25602,77,0
25606,313,0
25610,90,0
25614,0,0
25618,51,0
25622,321,0
25626,83,0
25630,0,0
25634,28,0
25638,292,0
25642,108,0
25646,0,0
25650,7,0
25654,287,0
25658,141,0
25662,0,0
25666,1,0
25670,241,0
25674,182,0
25678,0,0
25682,0,0
25686,187,0
25690,209,0
25694,16,0
25698,0,0
25702,88,0
25706,265,0
25710,83,0
25714,0,0
25718,46,0
25722,296,0
25726,110,0
25730,0,0
25734,6,0
25738,278,0
25742,148,0
25746,0,0
25750,0,0
25754,280,0
25758,182,0
25762,0,0
25766,0,0
25770,260,0
25774,191,0
25778,0,0
25782,0,0
25786,232,0
25790,213,0
25794,0,0
25798,0,0
25802,129,0
25806,259,0
25810,68,0
25814,0,0
25818,77,0
25822,265,0
25826,104,0
25830,0,0
25834,6,0
25838,227,0
25842,154,0
25846,0,0
25850,0,0
25854,249,0
25858,181,0
25862,0,0
25866,0,0
25870,239,0
25874,226,0
25878,0,0
25882,0,0
25886,224,0
25890,266,0
25894,0,0
25898,0,0
25902,142,0
25906,287,0
25910,30,0
25914,0,0
25918,90,0
25922,275,0
25926,58,0
25930,0,0
25934,63,0
25938,230,0
25942,100,0
25946,0,0
25950,4,0
25954,229,0
25958,147,0
25962,0,0
25966,0,0
25970,204,0
25974,210,0
25978,0,0
25982,0,0
25986,177,0
25990,256,0
25994,4,0
25998,0,0
26002,104,0
26006,305,0
26010,63,0
26014,0,0
26018,89,0
26022,320,0
26026,63,0
26030,0,0
26034,54,0
26038,276,0
26042,96,0
26046,0,0
26050,20,0
26054,261,0
26058,134,0
26062,0,0
26066,0,0
26070,215,0
26074,152,0
26078,0,0
26082,0,0
26086,183,0
26090,209,0
26094,6,0
26098,0,0
26102,107,0
26106,285,0
26110,83,0
26114,0,0
26118,51,0
26122,318,0
26126,110,0
26130,0,0
26134,12,0
26138,275,0
26142,147,0
26146,0,0
26150,7,0
26154,281,0
26158,148,0
26162,0,0
26166,0,0
26170,263,0
26174,159,0
26178,0,0
26182,0,0
26186,237,0
26190,203,0
26194,0,0
26198,0,0
26202,131,0
26206,251,0
26210,66,0
26214,0,0
26218,59,0
26222,267,0
26226,97,0
26230,0,0
26234,20,0
26238,231,0
26242,135,0
26246,0,0
26250,0,0
26254,254,0
26258,177,0
26262,0,0
26266,0,0
26270,245,0
26274,213,0
26278,0,0
26282,0,0
26286,230,0
26290,245,0
26294,0,0
26298,0,0
26302,164,0
26306,279,0
26310,27,0
26314,0,0
26318,97,0
26322,279,0
26326,38,0
26330,0,0
26334,68,0
26338,231,0
26342,111,0
26346,0,0
26350,4,0
26354,230,0
26358,161,0
26362,0,0
26366,0,0
26370,206,0
26374,197,0
26378,0,0
26382,0,0
26386,204,0
26390,254,0
26394,0,0
26398,0,0
26402,141,0
26406,306,0
26410,42,0
26414,0,0
26418,91,0
26422,332,0
26426,47,0
26430,0,0
26434,58,0
26438,267,0
26442,95,0
26446,0,0
26450,48,0
26454,248,0
26458,128,0
26462,0,0
26466,7,0
26470,217,0
26474,148,0
26478,0,0
26482,0,0
26486,195,0
26490,216,0
26494,0,0
26498,0,0
26502,122,0
26506,293,0
26510,76,0
26514,0,0
26518,46,0
26522,327,0
26526,94,0
26530,0,0
26534,24,0
26538,280,0
26542,115,0
26546,0,0
26550,15,0
26554,285,0
26558,132,0
26562,0,0
26566,1,0
26570,264,0
26574,150,0
26578,0,0
26582,0,0
26586,230,0
26590,201,0
26594,0,0
26598,0,0
26602,136,0
26606,243,0
26610,65,0
26614,0,0
26618,55,0
26622,275,0
26626,84,0
26630,0,0
26634,17,0
26638,252,0
26642,135,0
26646,0,0
26650,0,0
26654,311,0
26658,178,0
26662,0,0
26666,0,0
26670,261,0
26674,198,0
26678,0,0
26682,0,0
26686,245,0
26690,223,0
26694,0,0
26698,0,0
26702,182,0
26706,254,0
26710,6,0
26714,0,0
26718,110,0
26722,280,0
26726,52,0
26730,0,0
26734,52,0
26738,236,0
26742,109,0
26746,0,0
26750,12,0
26754,228,0
26758,162,0
26762,0,0
26766,0,0
26770,214,0
26774,194,0
26778,0,0
26782,0,0
26786,212,0
26790,249,0
26794,0,0
26798,0,0
26802,174,0
26806,293,0
26810,14,0
26814,0,0
26818,96,0
26822,318,0
26826,36,0
26830,0,0
26834,75,0
26838,282,0
26842,72,0
26846,0,0
26850,36,0
26854,240,0
26858,126,0
26862,0,0
26866,2,0
26870,218,0
26874,151,0
26878,0,0
26882,0,0
26886,197,0
26890,234,0
26894,0,0
26898,0,0
26902,130,0
26906,284,0
26910,45,0
26914,0,0
26918,74,0
26922,327,0
26926,64,0
26930,0,0
26934,51,0
26938,325,0
26942,91,0
26946,0,0
26950,29,0
26954,288,0
26958,129,0
26962,0,0
26966,4,0
26970,254,0
26974,135,0
26978,0,0
26982,0,0
26986,214,0
26990,192,0
26994,0,0
26998,0,0
27002,147,0
27006,240,0
27010,42,0
27014,0,0
27018,56,0
27022,294,0
27026,67,0
27030,0,0
27034,23,0
27038,321,0
27042,131,0
27046,0,0
27050,4,0
27054,294,0
27058,167,0
27062,0,0
27066,1,0
27070,255,0
27074,158,0
27078,0,0
27082,0,0
27086,257,0
27090,197,0
27094,0,0
27098,0,0
27102,189,0
27106,233,0
27110,17,0
27114,0,0
27118,68,0
27122,280,0
27126,73,0
27130,0,0
27134,36,0
27138,273,0
27142,120,0
27146,0,0
27150,4,0
27154,243,0
27158,169,0
27162,0,0
27166,0,0
27170,259,0
27174,196,0
27178,0,0
27182,0,0
27186,257,0
27190,274,0
27194,0,0
27198,0,0
27202,219,0
27206,256,0
27210,0,0
27214,0,0
27218,114,0
27222,285,0
27226,34,0
27230,0,0
27234,88,0
27238,263,0
27242,74,0
27246,0,0
27250,37,0
27254,238,0
27258,146,0
27262,0,0
27266,0,0
27270,217,0
27274,181,0
27278,0,0
27282,0,0
27286,201,0
27290,234,0
27294,0,0
27298,0,0
27302,176,0
27306,276,0
27310,7,0
27314,0,0
27318,103,0
27322,330,0
27326,30,0
27330,0,0
27334,85,0
27338,308,0
27342,76,0
27346,0,0
27350,42,0
27354,258,0
27358,110,0
27362,0,0
27366,12,0
27370,238,0
27374,129,0
27378,0,0
27382,0,0
27386,207,0
27390,197,0
27394,0,0
27398,0,0
27402,160,0
27406,253,0
27410,60,0
27414,0,0
27418,67,0
27422,315,0
27426,91,0
27430,0,0
27434,32,0
27438,310,0
27442,102,0
27446,0,0
27450,18,0
27454,302,0
27458,132,0
27462,0,0
27466,25,0
27470,295,0
27474,140,0
27478,0,0
27482,0,0
27486,257,0
27490,208,0
27494,0,0
27498,0,0
27502,203,0
27506,233,0
27510,22,0
27514,0,0
27518,84,0
27522,283,0
27526,94,0
27530,0,0
27534,44,0
27538,286,0
27542,126,0
27546,0,0
27550,0,0
27554,257,0
27558,169,0
27562,0,0
27566,0,0
27570,272,0
27574,192,0
27578,0,0
27582,0,0
27586,251,0
27590,233,0
27594,0,0
27598,0,0
27602,213,0
27606,244,0
27610,0,0
27614,0,0
27618,136,0
27622,276,0
27626,41,0
27630,0,0
27634,92,0
27638,268,0
27642,57,0
27646,0,0
27650,34,0
27654,220,0
27658,137,0
27662,0,0
27666,0,0
27670,212,0
27674,179,0
27678,0,0
27682,0,0
27686,206,0
27690,216,0
27694,0,0
27698,0,0
27702,196,0
27706,267,0
27710,0,0
27714,0,0
27718,109,0
27722,344,0
27726,38,0
27730,0,0
27734,57,0
27738,317,0
27742,58,0
27746,0,0
27750,52,0
27754,243,0
27758,102,0
27762,0,0
27766,15,0
27770,237,0
27774,124,0
27778,0,0
27782,1,0
27786,217,0
27790,180,0
27794,0,0
27798,0,0
27802,173,0
27806,243,0
27810,17,0
27814,0,0
27818,91,0
27822,314,0
27826,87,0
27830,0,0
27834,44,0
27838,325,0
27842,80,0
27846,0,0
27850,29,0
27854,287,0
27858,118,0
27862,0,0
27866,4,0
27870,285,0
27874,129,0
27878,0,0
27882,1,0
27886,240,0
27890,170,0
27894,0,0
27898,0,0
27902,201,0
27906,205,0
27910,5,0
27914,0,0
27918,111,0
27922,257,0
27926,78,0
27930,0,0
27934,35,0
27938,295,0
27942,102,0
27946,0,0
27950,3,0
27954,275,0
27958,159,0
27962,0,0
27966,0,0
27970,281,0
27974,157,0
27978,0,0
27982,0,0
27986,261,0
27990,203,0
27994,0,0
27998,0,0
28002,235,0
28006,233,0
28010,0,0
28014,0,0
28018,145,0
28022,280,0
28026,62,0
28030,0,0
28034,59,0
28038,283,0
28042,96,0
28046,0,0
28050,9,0
28054,231,0
28058,160,0
28062,0,0
28066,0,0
28070,250,0
28074,196,0
28078,0,0
28082,0,0
28086,236,0
28090,228,0
28094,0,0
28098,0,0
28102,234,0
28106,276,0
28110,0,0
28114,0,0
28118,148,0
28122,322,0
28126,43,0
28130,0,0
28134,94,0
28138,301,0
28142,52,0
28146,0,0
28150,60,0
28154,244,0
28158,97,0
28162,0,0
28166,15,0
28170,235,0
28174,142,0
28178,0,0
28182,0,0
28186,211,0
28190,205,0
28194,0,0
28198,0,0
28202,184,0
28206,263,0
28210,2,0
28214,0,0
28218,101,0
28222,319,0
28226,72,0
28230,0,0
28234,88,0
28238,323,0
28242,73,0
28246,0,0
28250,62,0
28254,299,0
28258,104,0
28262,0,0
28266,15,0
28270,282,0
28274,143,0
28278,0,0
28282,4,0
28286,244,0
28290,160,0
28294,0,0
28298,0,0
28302,197,0
28306,203,0
28310,0,0
28314,0,0
28318,111,0
28322,272,0
28326,72,0
28330,0,0
28334,58,0
28338,307,0
28342,95,0
28346,0,0
28350,6,0
28354,278,0
28358,140,0
28362,0,0
28366,7,0
28370,286,0
28374,157,0
28378,0,0
28382,0,0
28386,271,0
28390,204,0
28394,0,0
28398,0,0
28402,236,0
28406,195,0
28410,0,0
28414,0,0
28418,154,0
28422,253,0
28426,20,0
28430,0,0
28434,88,0
28438,301,0
28442,83,0
28446,0,0
28450,13,0
28454,221,0
28458,150,0
28462,0,0
28466,17,0
28470,239,0
28474,185,0
28478,0,0
28482,0,0
28486,253,0
28490,209,0
28494,0,0
28498,0,0
28502,238,0
28506,279,0
28510,0,0
28514,0,0
28518,167,0
28522,302,0
28526,32,0
28530,0,0
28534,117,0
28538,283,0
28542,24,0
28546,0,0
28550,76,0
28554,235,0
28558,84,0
28562,0,0
28566,29,0
28570,262,0
28574,142,0
28578,0,0
28582,1,0
28586,222,0
28590,183,0
28594,0,0
28598,0,0
28602,198,0
28606,240,0
28610,0,0
28614,0,0
28618,123,0
28622,289,0
28626,68,0
28630,0,0
28634,82,0
28638,340,0
28642,60,0
28646,0,0
28650,66,0
28654,295,0
28658,105,0
28662,0,0
28666,33,0
28670,282,0
28674,139,0
28678,0,0
28682,10,0
28686,263,0
28690,122,0
28694,8,0
28698,0,0
28702,202,0
28706,195,0
28710,0,0
28714,0,0
28718,126,0
28722,263,0
28726,62,0
28730,0,0
28734,59,0
28738,309,0
28742,97,0
28746,0,0
28750,32,0
28754,281,0
28758,147,0
28762,0,0
28766,5,0
28770,287,0
28774,164,0
28778,0,0
28782,3,0
28786,274,0
28790,163,0
28794,0,0
28798,0,0
28802,249,0
28806,200,0
28810,0,0
28814,0,0
28818,176,0
28822,242,0
28826,22,0
28830,0,0
28834,89,0
28838,277,0
28842,74,0
28846,0,0
28850,34,0
28854,222,0
28858,126,0
28862,0,0
28866,0,0
28870,248,0
28874,178,0
28878,0,0
28882,0,0
28886,260,0
28890,192,0
28894,0,0
28898,0,0
28902,246,0
28906,245,0
28910,0,0
28914,0,0
28918,183,0
28922,286,0
28926,22,0
28930,0,0
28934,130,0
28938,295,0
28942,26,0
28946,0,0
28950,70,0
28954,252,0
28958,63,0
28962,0,0
28966,23,0
28970,226,0
28974,166,0
28978,0,0
28982,0,0
28986,218,0
28990,185,0
28994,0,0
28998,0,0
29002,183,0
29006,229,0
29010,0,0
29014,0,0
29018,140,0
29022,292,0
29026,30,0
29030,0,0
29034,95,0
29038,335,0
29042,46,0
29046,0,0
29050,83,0
29054,321,0
29058,73,0
29062,0,0
29066,35,0
29070,262,0
29074,125,0
29078,0,0
29082,9,0
29086,240,0
29090,129,0
29094,0,0
29098,0,0
29102,187,0
29106,207,0
29110,0,0
29114,0,0
29118,146,0
29122,282,0
29126,52,0
29130,0,0
29134,51,0
29138,326,0
29142,84,0
29146,0,0
29150,38,0
29154,308,0
29158,97,0
29162,0,0
29166,20,0
29170,300,0
29174,129,0
29178,0,0
29182,7,0
29186,279,0
29190,141,0
29194,0,0
29198,0,0
29202,251,0
29206,233,0
29210,0,0
29214,0,0
29218,159,0
29222,249,0
29226,36,0
29230,0,0
29234,59,0
29238,268,0
29242,61,0
29246,0,0
29250,30,0
29254,294,0
29258,118,0
29262,0,0
29266,0,0
29270,267,0
29274,173,0
29278,0,0
29282,0,0
29286,258,0
29290,193,0
29294,0,0
29298,0,0
29302,257,0
29306,228,0
29310,0,0
29314,0,0
29318,209,0
29322,248,0
29326,1,0
29330,0,0
29334,117,0
29338,279,0
29342,31,0
29346,0,0
29350,78,0
29354,277,0
29358,74,0
29362,0,0
29366,14,0
29370,234,0
29374,151,0
29378,0,0
29382,0,0
29386,227,0
29390,191,0
29394,0,0
29398,12,0
29402,222,0
29406,242,0
29410,0,0
29414,0,0
29418,197,0
29422,287,0
29426,1,0
29430,0,0
29434,111,0
29438,327,0
29442,29,0
29446,0,0
29450,92,0
29454,296,0
29458,68,0
29462,0,0
29466,52,0
29470,252,0
29474,103,0
29478,0,0
29482,9,0
29486,234,0
29490,141,0
29494,0,0
29498,1,0
29502,213,0
29506,222,0
29510,0,0
29514,0,0
29518,154,0
29522,283,0
29526,41,0
29530,0,0
29534,70,0
29538,315,0
29542,67,0
29546,0,0
29550,52,0
29554,311,0
29558,79,0
29562,0,0
29566,42,0
29570,296,0
29574,120,0
29578,0,0
29582,8,0
29586,280,0
29590,136,0
29594,0,0
29598,0,0
29602,248,0
29606,178,0
29610,0,0
29614,0,0
29618,181,0
29622,219,0
29626,23,0
29630,0,0
29634,79,0
29638,281,0
29642,62,0
29646,0,0
29650,50,0
29654,290,0
29658,104,0
29662,0,0
29666,0,0
29670,290,0
29674,152,0
29678,0,0
29682,0,0
29686,271,0
29690,166,0
29694,0,0
29698,0,0
29702,251,0
29706,204,0
29710,0,0
29714,0,0
29718,217,0
29722,223,0
29726,0,0
29730,0,0
29734,123,0
29738,263,0
29742,40,0
29746,0,0
29750,74,0
29754,276,0
29758,96,0
29762,0,0
29766,14,0
29770,234,0
29774,158,0
29778,0,0
29782,0,0
29786,232,0
29790,180,0
29794,0,0
29798,0,0
29802,218,0
29806,263,0
29810,0,0
29814,0,0
29818,221,0
29822,281,0
29826,4,0
29830,0,0
29834,108,0
29838,299,0
29842,30,0
29846,0,0
29850,92,0
29854,291,0
29858,50,0
29862,0,0
29866,57,0
29870,236,0
29874,88,0
29878,0,0
29882,7,0
29886,227,0
29890,131,0
29894,0,0
29898,0,0
29902,210,0
29906,203,0
29910,0,0
29914,0,0
29918,171,0
29922,244,0
29926,12,0
29930,0,0
29934,86,0
29938,310,0
29942,54,0
29946,0,0
29950,91,0
29954,294,0
29958,62,0
29962,0,0
29966,52,0
29970,288,0
29974,94,0
29978,0,0
29982,5,0
29986,261,0
29990,126,0
29994,0,0
29998,0,0
30002,222,0
30006,154,0
30010,0,0
30014,0,0
30018,185,0
30022,201,0
30026,10,0
30030,0,0
30034,98,0
30038,281,0
30042,75,0
30046,0,0
30050,73,0
30054,314,0
30058,80,0
30062,0,0
30066,5,0
30070,278,0
30074,145,0
30078,0,0
30082,20,0
30086,282,0
30090,142,0
30094,0,0
30098,0,0
30102,287,0
30106,163,0
30110,0,0
30114,8,0
30118,226,0
30122,208,0
30126,0,0
30130,0,0
30134,91,0
30138,243,0
30142,77,0
30146,0,0
30150,56,0
30154,263,0
30158,92,0
30162,0,0
30166,15,0
30170,250,0
30174,137,0
30178,0,0
30182,0,0
30186,266,0
30190,177,0
30194,0,0
30198,0,0
30202,264,0
30206,208,0
30210,0,0
30214,0,0
30218,230,0
30222,217,0
30226,0,0
30230,0,0
30234,159,0
30238,249,0
30242,31,0
30246,0,0
30250,107,0
30254,262,0
30258,43,0
30262,0,0
30266,28,0
30270,219,0
30274,117,0
30278,0,0
30282,0,0
30286,217,0
30290,174,0
30294,0,0
30298,0,0
30302,211,0
30306,197,0
30310,0,0
30314,0,0
30318,208,0
30322,248,0
30326,0,0
30330,0,0
30334,144,0
30338,296,0
30342,24,0
30346,0,0
30350,105,0
30354,297,0
30358,46,0
30362,0,0
30366,46,0
30370,254,0
30374,65,0
30378,0,0
30382,19,0
30386,235,0
30390,132,0
30394,0,0
30398,0,0
30402,198,0
30406,160,0
30410,0,0
30414,0,0
30418,181,0
30422,225,0
30426,0,0
30430,0,0
30434,103,0
30438,287,0
30442,68,0
30446,0,0
30450,73,0
30454,314,0
30660,0,0
30662,0,0
30666,19,0
30670,212,0
30674,121,0
30678,0,0
30682,0,0
30686,231,0
30690,166,0
30694,0,0
30698,0,0
30702,250,0
30706,181,0
30710,0,0
30714,0,0
30718,231,0
30722,237,0
30726,0,0
30730,0,0
30734,158,0
30738,272,0
30742,9,0
30746,0,0
30750,100,0
30754,275,0
30758,17,0
30762,0,0
30766,70,0
30770,214,0
30774,67,0
30778,0,0
30782,16,0
30786,218,0
30790,140,0
30794,0,0
30798,0,0
30802,198,0
30806,180,0
30810,0,0
30814,0,0
30818,190,0
30822,230,0
30826,0,0
30830,0,0
30834,136,0
30838,287,0
30842,11,0
30846,0,0
30850,83,0
30854,308,0
30858,24,0
30862,0,0
30866,82,0
30870,281,0
30874,71,0
30878,0,0
30882,27,0
30886,243,0
30890,112,0
30894,0,0
30898,8,0
30902,217,0
30906,129,0
30910,0,0
30914,0,0
30918,193,0
30922,198,0
30926,0,0
30930,0,0
30934,130,0
30938,272,0
30942,53,0
30946,0,0
30950,40,0
30954,309,0
30958,66,0
30962,0,0
30966,30,0
30970,296,0
30974,92,0
30978,0,0
30982,19,0
30986,286,0
30990,109,0
30994,0,0
30998,0,0
31002,272,0
31006,128,0
31010,0,0
31014,0,0
31018,220,0
31022,182,0
31026,0,0
31030,0,0
31034,136,0
31038,224,0
31042,38,0
31046,0,0
31050,52,0
31054,289,0
31058,78,0
31062,0,0
31066,23,0
31070,302,0
31074,131,0
31078,0,0
31082,0,0
31086,274,0
31090,176,0
31094,0,0
31098,0,0
31102,266,0
31106,166,0
31110,0,0
31114,0,0
31118,244,0
31122,226,0
31126,0,0
31130,0,0
31134,197,0
31138,237,0
31142,0,0
31146,0,0
31150,97,0
31154,283,0
31158,42,0
31162,0,0
31166,40,0
31170,275,0
31174,96,0
31178,0,0
31182,0,0
31186,236,0
31190,167,0
31194,0,0
31198,0,0
31202,243,0
31206,193,0
31210,0,0
31214,0,0
31218,230,0
31222,268,0
31226,0,0
31230,0,0
31234,206,0
31238,278,0
31242,0,0
31246,0,0
31250,104,0
31254,317,0
31258,19,0
31262,0,0
31266,89,0
31270,289,0
31274,94,0
31278,0,0
31282,47,0
31286,246,0
31290,119,0
31294,0,0
31298,1,0
31302,225,0
31306,159,0
31310,0,0
31314,0,0
31318,207,0
31322,231,0
31326,0,0
31330,0,0
31334,155,0
31338,280,0
31342,24,0
31346,0,0
31350,66,0
31354,316,0
31358,45,0
31362,0,0
31366,77,0
31370,338,0
31374,54,0
31378,0,0
31382,61,0
31386,256,0
31390,126,0
31394,0,0
31398,11,0
31402,257,0
31406,136,0
31410,0,0
31414,0,0
31418,211,0
31422,181,0
31426,0,0
31430,0,0
31434,166,0
31438,227,0
31442,24,0
31446,0,0
31450,74,0
31454,301,0
31458,71,0
31462,0,0
31466,30,0
31470,327,0
31474,114,0
31478,0,0
31482,3,0
31486,282,0
31490,153,0
31494,0,0
31498,2,0
31502,275,0
31506,130,0
31510,0,0
31514,0,0
31518,303,0
31522,184,0
31526,0,0
31530,0,0
31534,210,0
31538,234,0
31542,11,0
31546,5,0
31550,85,0
31554,254,0
31558,65,0
31562,0,0
31566,37,0
31570,262,0
31574,103,0
31578,0,0
31582,6,0
31586,250,0
31590,150,0
31594,0,0
31598,0,0
31602,267,0
31606,186,0
31610,0,0
31614,0,0
31618,252,0
31622,231,0
31626,0,0
31630,0,0
31634,223,0
31638,235,0
31642,0,0
31646,0,0
31650,133,0
31654,261,0
31658,15,0
31662,0,0
31666,93,0
31670,264,0
31674,64,0
31678,0,0
31682,27,0
31686,228,0
31690,143,0
31694,0,0
31698,0,0
31702,216,0
31706,178,0
31710,0,0
31714,0,0
31718,212,0
31722,241,0
31726,0,0
31730,0,0
31734,209,0
31738,269,0
31742,0,0
31746,0,0
31750,124,0
31754,311,0
31758,39,0
31762,0,0
31766,84,0
31770,300,0
31774,47,0
31778,0,0
31782,58,0
31786,249,0
31790,86,0
31794,4,0
31798,13,0
31802,243,0
31806,112,0
31810,0,0
31814,3,0
31818,201,0
31822,196,0
31826,0,0
31830,0,0
31834,158,0
31838,282,0
31842,9,0
31846,0,0
31850,82,0
31854,306,0
31858,66,0
31862,0,0
31866,63,0
31870,306,0
31874,61,0
31878,0,0
31882,54,0
31886,286,0
31890,92,0
31894,0,0
31898,15,0
31902,272,0
31906,125,0
31910,0,0
31914,2,0
31918,223,0
31922,168,0
31926,0,0
31930,0,0
31934,171,0
31938,179,0
31942,5,0
31946,0,0
31950,94,0
31954,271,0
31958,66,0
31962,0,0
31966,41,0
31970,298,0
31974,90,0
31978,0,0
31982,1,0
31986,290,0
31990,140,0
31994,0,0
31998,4,0
32002,274,0
32006,143,0
32010,0,0
32014,4,0
32018,267,0
32022,158,0
32026,0,0
32030,0,0
32034,236,0
32038,200,0
32042,0,0
32046,0,0
32050,120,0
32054,243,0
32058,58,0
32062,0,0
32066,55,0
32070,261,0
32074,91,0
32078,0,0
32082,9,0
32086,239,0
32090,132,0
32094,0,0
32098,5,0
32102,262,0
32106,175,0
32110,0,0
32114,0,0
32118,274,0
32122,205,0
32126,0,0
32130,0,0
32134,230,0
32138,221,0
32142,0,0
32146,0,0
32150,159,0
32154,261,0
32158,25,0
32162,0,0
32166,116,0
32170,281,0
32174,48,0
32178,0,0
32182,50,0
32186,233,0
32190,117,0
32194,0,0
32198,8,0
32202,238,0
32206,181,0
32210,0,0
32214,0,0
32218,225,0
32222,205,0
32226,0,0
32230,4,0
32234,214,0
32238,262,0
32242,0,0
32246,0,0
32250,152,0
32254,313,0
32258,62,0
32262,0,0
32266,111,0
32270,332,0
32274,42,0
32278,0,0
32282,63,0
32286,267,0
32290,92,0
32294,0,0
32298,20,0
32302,247,0
32306,130,0
32310,0,0
32314,6,0
32318,235,0
32322,171,0
32326,0,0
32330,0,0
32334,197,0
32338,228,0
32342,0,0
32346,0,0
32350,112,0
32354,301,0
32358,78,0
32362,0,0
32366,58,0
32370,333,0
32374,87,0
32378,0,0
32382,34,0
32386,285,0
32390,102,0
32394,0,0
32398,18,0
32402,294,0
32406,134,0
32410,0,0
32414,0,0
32418,277,0
32422,151,0
32426,0,0
32430,0,0
32434,222,0
32438,207,0
32442,0,0
32446,0,0
32450,119,0
32454,251,0
32458,74,0
32462,0,0
32466,54,0
32470,293,0
32474,94,0
32478,0,0
32482,19,0
32486,277,0
32490,134,0
32494,0,0
32498,0,0
32502,279,0
32506,204,0
32510,0,0
32514,0,0
32518,272,0
32522,183,0
32526,0,0
32530,0,0
32534,252,0
32538,200,0
32542,0,0
32546,0,0
32550,186,0
32554,254,0
32558,20,0
32562,0,0
32566,87,0
32570,284,0
32574,70,0
32578,0,0
32582,36,0
32586,235,0
32590,125,0
32594,0,0
32598,0,0
32602,243,0
32606,169,0
32610,0,0
32614,0,0
32618,255,0
32622,191,0
32626,0,0
32630,0,0
32634,235,0
32638,244,0
32642,0,0
32646,0,0
32650,178,0
32654,278,0
32658,6,0
32662,0,0
32666,107,0
32670,286,0
32674,29,0
32678,0,0
32682,74,0
32686,252,0
32690,59,0
32694,0,0
32698,21,0
32702,231,0
32706,150,0
32710,0,0
32714,0,0
32718,214,0
32722,186,0
32726,0,0
32730,0,0
32734,193,0
32738,238,0
32742,0,0
32746,0,0
32750,158,0
32754,301,0
32758,11,0
32762,0,0
32766,92,0
32770,330,0
32774,52,0
32778,0,0
32782,80,0
32786,301,0
32790,61,0
32794,0,0
32798,25,0
32802,242,0
32806,101,0
32810,0,0
32814,13,0
32818,214,0
32822,136,0
32826,0,0
32830,0,0
32834,201,0
32838,208,0
32842,0,0
32846,0,0
32850,135,0
32854,279,0
32858,48,0
32862,0,0
32866,48,0
32870,319,0
32874,59,0
32878,0,0
32882,48,0
32886,321,0
32890,80,0
32894,0,0
32898,28,0
32902,287,0
32906,105,0
32910,0,0
32914,9,0
32918,270,0
32922,125,0
32926,0,0
32930,4,0
32934,216,0
32938,195,0
32942,0,0
32946,0,0
32950,139,0
32954,229,0
32958,24,0
32962,0,0
32966,61,0
32970,265,0
32974,69,0
32978,0,0
32982,34,0
32986,300,0
32990,123,0
32994,0,0
32998,0,0
33002,276,0
33006,165,0
33010,0,0
33014,0,0
33018,259,0
33022,151,0
33026,0,0
33030,0,0
33034,260,0
33038,190,0
33042,0,0
33046,0,0
33050,195,0
33054,226,0
33058,3,0
33062,0,0
33066,97,0
33070,268,0
33074,43,0
33078,0,0
33082,55,0
33086,250,0
33090,108,0
33094,0,0
33098,3,0
33102,232,0
33106,147,0
33110,0,0
33114,0,0
33118,242,0
33122,179,0
33126,0,0
33130,0,0
33134,243,0
33138,243,0
33142,0,0
33146,0,0
33150,199,0
33154,264,0
33158,0,0
33162,0,0
33166,111,0
33170,289,0
33174,15,0
33178,0,0
33182,85,0
33186,254,0
33190,43,0
33194,0,0
33198,45,0
33202,233,0
33206,113,0
33210,0,0
33214,0,0
33218,216,0
33222,145,0
33226,0,0
33230,0,0
33234,192,0
33238,231,0
33242,0,0
33246,0,0
33250,167,0
33254,278,0
33258,26,0
33262,0,0
33266,89,0
33270,314,0
33274,35,0
33278,0,0
33282,83,0
33286,306,0
33290,54,0
33294,0,0
33298,43,0
33302,250,0
33306,107,0
33310,0,0
33314,9,0
33318,248,0
33322,135,0
33326,0,0
33330,1,0
33334,214,0
33338,174,0
33342,0,0
33346,0,0
33350,166,0
33354,234,0
33358,13,0
33362,0,0
33366,68,0
33370,301,0
33374,69,0
33378,0,0
33382,34,0
33386,301,0
33390,93,0
33394,0,0
33398,9,0
33402,279,0
33406,141,0
33410,0,0
33414,3,0
33418,274,0
33422,128,0
33426,0,0
33430,0,0
33434,243,0
33438,167,0
33442,0,0
33446,0,0
33450,192,0
33454,201,0
33458,10,0
33462,0,0
33466,77,0
33470,246,0
33474,76,0
33478,0,0
33482,44,0
33486,273,0
33490,93,0
33494,0,0
33498,4,0
33502,257,0
33506,153,0
33510,0,0
33514,0,0
33518,255,0
33522,155,0
33526,0,0
33530,0,0
33534,252,0
33538,171,0
33542,0,0
33546,0,0
33550,211,0
33554,207,0
33558,0,0
33562,0,0
33566,132,0
33570,225,0
33574,30,0
33578,0,0
33582,79,0
33586,254,0
33590,65,0
33594,0,0
33598,21,0
33602,217,0
33606,114,0
33610,0,0
33614,0,0
33618,216,0
33622,156,0
33626,0,0
33630,0,0
33634,221,0
33638,206,0
33642,0,0
33646,0,0
33650,213,0
33654,250,0
33658,0,0
33662,0,0
33666,129,0
33670,295,0
33674,33,0
33678,0,0
33682,88,0
33686,277,0
33690,39,0
33694,0,0
33698,61,0
33702,222,0
33706,93,0
33710,0,0
33714,15,0
33718,240,0
33722,124,0
33726,0,0
33730,0,0
33734,215,0
33738,199,0
33742,0,0
33746,0,0
33750,172,0
33754,246,0
33758,4,0
33762,0,0
33766,100,0
33770,294,0
33774,60,0
33778,0,0
33782,86,0
33786,326,0
33790,51,0
33794,0,0
33798,59,0
33802,299,0
33806,102,0
33810,0,0
33814,16,0
33818,280,0
33822,141,0
33826,0,0
33830,1,0
33834,242,0
33838,166,0
33842,0,0
33846,0,0
33850,192,0
33854,216,0
33858,1,0
33862,0,0
33866,106,0
33870,292,0
33874,88,0
33878,0,0
33882,57,0
33886,330,0
33890,109,0
33894,0,0
33898,4,0
33902,296,0
33906,157,0
33910,0,0
33914,3,0
33918,290,0
33922,163,0
33926,0,0
33930,3,0
33934,274,0
33938,189,0
33942,0,0
33946,0,0
33950,226,0
33954,220,0
33958,0,0
33962,0,0
33966,146,0
33970,278,0
33974,51,0
33978,0,0
33982,62,0
33986,303,0
33990,96,0
33994,0,0
33998,9,0
34002,236,0
34006,142,0
34010,0,0
34014,0,0
34018,271,0
34022,197,0
34026,0,0
34030,0,0
34034,262,0
34038,216,0
34042,0,0
34046,0,0
34050,237,0
34054,262,0
34058,0,0
34062,0,0
34066,162,0
34070,295,0
34074,27,0
34078,0,0
34082,94,0
34086,304,0
34090,37,0
34094,0,0
34098,58,0
34102,235,0
34106,94,0
34110,0,0
34114,19,0
34118,224,0
34122,149,0
34126,0,0
34130,0,0
34134,216,0
34138,185,0
34142,0,0
34146,0,0
34150,187,0
34154,249,0
34158,0,0
34162,0,0
34166,112,0
34170,290,0
34174,42,0
34178,0,0
34182,99,0
34186,333,0
34190,43,0
34194,0,0
34198,72,0
34202,274,0
34206,66,0
34210,0,0
34214,27,0
34218,261,0
34222,91,0
34226,0,0
34230,13,0
34234,225,0
34238,128,0
34242,0,0
34246,0,0
34250,188,0
34254,179,0
34258,0,0
34262,4,0
34266,108,0
34270,267,0
34274,56,0
34278,0,0
34282,51,0
34286,303,0
34290,70,0
34294,0,0
34298,23,0
34302,264,0
34306,114,0
34310,0,0
34314,7,0
34318,272,0
34322,123,0
34326,0,0
34330,3,0
34334,266,0
34338,135,0
34342,0,0
34346,0,0
34350,236,0
34354,183,0
34358,0,0
34362,0,0
34366,147,0
34370,211,0
34374,42,0
34378,0,0
34382,85,0
34386,268,0
34390,66,0
34394,0,0
34398,28,0
34402,238,0
34406,102,0
34410,0,0
34414,0,0
34418,234,0
34422,163,0
34426,0,0
34430,0,0
34434,251,0
34438,181,0
34442,0,0
34446,0,0
34450,240,0
34454,211,0
34458,0,0
34462,0,0
34466,191,0
34470,247,0
34474,0,0
34478,0,0
34482,107,0
34486,279,0
34490,30,0
34494,0,0
34498,57,0
34502,270,0
34506,97,0
34510,0,0
34514,11,0
34518,235,0
34522,156,0
34526,0,0
34530,0,0
34534,221,0
34538,185,0
34542,0,0
34546,0,0
34550,222,0
34554,244,0
34558,0,0
34562,0,0
34566,183,0
34570,292,0
34574,2,0
34578,0,0
34582,103,0
34586,334,0
34590,24,0
34594,0,0
34598,80,0
34602,306,0
34606,59,0
34610,0,0
34614,34,0
34618,242,0
34622,108,0
34626,0,0
34630,4,0
34634,223,0
34638,155,0
34642,0,0
34646,0,0
34650,192,0
34654,256,0
34658,0,0
34662,0,0
34666,133,0
34670,309,0
34674,23,0
34678,0,0
34682,80,0
34686,332,0
34690,50,0
34694,0,0
34698,79,0
34702,325,0
34706,79,0
34710,0,0
34714,26,0
34718,274,0
34722,107,0
34726,0,0
34730,11,0
34734,238,0
34738,134,0
34742,0,0
34746,0,0
34750,207,0
34754,189,0
34758,0,0
34762,0,0
34766,153,0
34770,264,0
34774,40,0
34778,0,0
34782,56,0
34786,317,0
34790,69,0
34794,0,0
34798,42,0
34802,307,0
34806,116,0
34810,0,0
34814,19,0
34818,281,0
34822,125,0
34826,0,0
34830,23,0
34834,271,0
34838,110,0
34842,0,0
34846,0,0
34850,243,0
34854,192,0
34858,0,0
34862,0,0
34866,186,0
34870,215,0
34874,35,0
34878,0,0
34882,57,0
34886,256,0
34890,70,0
34894,0,0
34898,32,0
34902,270,0
34906,108,0
34910,0,0
34914,8,0
34918,256,0
34922,162,0
34926,0,0
34930,0,0
34934,274,0
34938,182,0
34942,0,0
34946,0,0
34950,237,0
34954,199,0
34958,0,0
34962,0,0
34966,209,0
34970,214,0
34974,0,0
34978,0,0
34982,115,0
34986,254,0
34990,30,0
34994,0,0
34998,50,0
35002,249,0
35006,82,0
35010,0,0
35014,3,0
35018,208,0
35022,135,0
35026,0,0
35030,0,0
35034,225,0
35038,174,0
35042,0,0
35046,0,0
35050,218,0
35054,223,0
35058,0,0
35062,0,0
35066,208,0
35070,248,0
35074,0,0
35078,0,0
35082,111,0
35086,263,0
35090,13,0
35094,0,0
35098,93,0
35102,259,0
35106,28,0
35110,0,0
35114,55,0
35118,225,0
35122,98,0
35126,0,0
35130,8,0
35134,216,0
35138,141,0
35142,0,0
35146,0,0
35150,200,0
35154,214,0
35158,0,0
35162,0,0
35166,173,0
35170,252,0
35174,4,0
35178,0,0
35182,102,0
35186,314,0
35190,48,0
35194,0,0
35198,84,0
35202,325,0
35206,60,0
35210,0,0
35214,53,0
35218,266,0
35222,102,0
35226,0,0
35230,14,0
35234,263,0
35238,133,0
35242,0,0
35246,0,0
35250,223,0
35254,165,0
35258,0,0
35262,0,0
35266,179,0
35270,228,0
35274,11,0
35278,0,0
35282,99,0
35286,297,0
35290,79,0
35294,0,0
35298,31,0
35302,318,0
35306,98,0
35310,0,0
35314,13,0
35318,286,0
35322,133,0
35326,0,0
35330,4,0
35334,281,0
35338,140,0
35342,0,0
35346,0,0
35350,260,0
35354,169,0
35358,0,0
35362,0,0
35366,215,0
35370,205,0
35374,0,0
35378,0,0
35382,90,0
35386,252,0
35390,45,0
35394,0,0
35398,37,0
35402,286,0
35406,95,0
35410,0,0
35414,22,0
35418,270,0
35422,141,0
35426,0,0
35430,0,0
35434,274,0
35438,183,0
35442,0,0
35446,0,0
35450,264,0
35454,205,0
35458,0,0
35462,0,0
35466,232,0
35470,222,0
35474,0,0
35478,0,0
35482,150,0
35486,257,0
35490,25,0
35494,0,0
35498,132,0
35502,262,0
35506,51,0
35510,0,0
35514,22,0
35518,232,0
35522,126,0
35526,0,0
35530,0,0
35534,216,0
35538,176,0
35542,0,0
35546,0,0
35550,220,0
35554,208,0
35558,0,0
35562,0,0
35566,200,0
35570,272,0
35574,0,0
35578,0,0
35582,145,0
35586,285,0
35590,30,0
35594,0,0
35598,91,0
35602,279,0
35606,20,0
35610,0,0
35614,67,0
35618,225,0
35622,68,0
35626,0,0
35630,17,0
35634,221,0
35638,123,0
35642,0,0
35646,0,0
35650,228,0
35654,192,0
35658,0,0
35662,0,0
35666,184,0
35670,240,0
35674,0,0
35678,0,0
35682,110,0
35686,293,0
35690,52,0
35694,0,0
35698,84,0
35702,332,0
35706,23,0
35710,0,0
35714,58,0
35718,269,0
35722,77,0
35726,0,0
35730,24,0
35734,258,0
35738,109,0
35742,0,0
35746,0,0
35750,220,0
35754,130,0
35758,0,0
35762,0,0
35766,189,0
35770,189,0
35774,0,0
35778,0,0
35782,110,0
35786,260,0
35790,49,0
35794,0,0
35798,55,0
35802,306,0
35806,70,0
35810,0,0
35814,19,0
35818,264,0
35822,99,0
35826,0,0
35830,13,0
35834,278,0
35838,117,0
35842,0,0
35846,0,0
35850,253,0
35854,118,0
35858,0,0
35862,0,0
35866,219,0
35870,179,0
35874,2,0
35878,0,0
35882,118,0
35886,210,0
35890,59,0
35894,0,0
35898,54,0
35902,257,0
35906,103,0
35910,0,0
35914,23,0
35918,254,0
35922,120,0
35926,0,0
35930,0,0
35934,270,0
35938,152,0
35942,0,0
35946,0,0
35950,261,0
35954,168,0
35958,0,0
35962,0,0
35966,239,0
35970,188,0
35974,0,0
35978,0,0
35982,158,0
35986,226,0
35990,15,0
35994,0,0
35998,85,0
36002,262,0
36006,47,0
36010,0,0
36014,24,0
36018,208,0
36022,113,0
36026,0,0
36030,0,0
36034,243,0
36038,156,0
36042,0,0
36046,0,0
36050,247,0
36054,185,0
36058,0,0
36062,0,0
36066,232,0
36070,209,0
36074,0,0
36078,0,0
36082,174,0
36086,248,0
36090,0,0
36094,0,0
36098,83,0
36102,255,0
36106,12,0
36110,0,0
36114,68,0
36118,235,0
36122,51,0
36126,0,0
36130,28,0
36134,221,0
36138,125,0
36142,0,0
36146,0,0
36150,210,0
36154,171,0
36158,0,0
36162,0,0
36166,209,0
36170,230,0
36174,0,0
36178,0,0
36182,165,0
36186,275,0
36190,3,0
36194,0,0
36198,95,0
36202,314,0
36206,22,0
36210,0,0
36214,84,0
36218,277,0
36222,52,0
36226,0,0
36230,37,0
36234,238,0
36238,96,0
36242,0,0
36246,4,0
36250,213,0
36254,133,0
36258,0,0
36262,0,0
36266,196,0
36270,245,0
36274,0,0
36278,0,0
36282,114,0
36286,291,0
36290,39,0
36294,0,0
36298,83,0
36302,324,0
36306,37,0
36310,0,0
36314,60,0
36318,334,0
36322,64,0
36326,0,0
36330,39,0
36334,281,0
36338,115,0
36342,0,0
36346,5,0
36350,239,0
36354,127,0
36358,0,0
36362,4,0
36366,205,0
36370,181,0
36374,0,0
36378,0,0
36382,134,0
36386,271,0
36390,37,0
36394,0,0
36398,52,0
36402,332,0
36406,62,0
36410,0,0
36414,33,0
36418,317,0
36422,98,0
36426,0,0
36430,17,0
36434,291,0
36438,115,0
36442,0,0
36446,0,0
36450,267,0
36454,137,0
36458,0,0
36462,0,0
36466,247,0
36470,192,0
36474,0,0
36478,0,0
36482,164,0
36486,225,0
36490,32,0
36494,0,0
36498,59,0
36502,278,0
36506,69,0
36510,0,0
36514,31,0
36518,282,0
36522,107,0
36526,0,0
36530,4,0
36534,285,0
36538,161,0
36542,0,0
36546,0,0
36550,277,0
36554,179,0
36558,0,0
36562,0,0
36566,259,0
36570,215,0
36574,0,0
36578,0,0
36582,215,0
36586,229,0
36590,1,0
36594,0,0
36598,104,0
36602,279,0
36606,35,0
36610,0,0
36614,51,0
36618,247,0
36622,99,0
36626,0,0
36630,5,0
36634,238,0
36638,159,0
36642,0,0
36646,0,0
36650,241,0
36654,176,0
36658,0,0
36662,0,0
36666,248,0
36670,228,0
36674,0,0
36678,0,0
36682,211,0
36686,256,0
36690,0,0
36694,0,0
36698,114,0
36702,264,0
36706,9,0
36710,0,0
36714,92,0
36718,242,0
36722,42,0
36726,0,0
36730,40,0
36734,226,0
36738,107,0
36742,0,0
36746,0,0
36750,211,0
36754,167,0
36758,0,0
36762,0,0
36766,199,0
36770,213,0
36774,0,0
36778,0,0
36782,187,0
36786,267,0
36790,0,0
36794,0,0
36798,120,0
36802,308,0
36806,9,0
36810,0,0
36814,80,0
36818,304,0
36822,37,0
36826,0,0
36830,52,0
36834,237,0
36838,88,0
36842,0,0
36846,4,0
36850,218,0
36854,111,0
36858,0,0
36862,0,0
36866,204,0
36870,171,0
36874,0,0
36878,0,0
36882,158,0
36886,247,0
36890,9,0
36894,0,0
36898,73,0
36902,289,0
36906,58,0
36910,0,0
36914,54,0
36918,301,0
36922,61,0
36926,0,0
36930,45,0
36934,279,0
36938,81,0
36942,0,0
36946,7,0
36950,265,0
36954,112,0
36958,0,0
36962,7,0
36966,252,0
36970,152,0
36974,0,0
36978,0,0
36982,182,0
36986,198,0
36990,19,0
36994,0,0
36998,89,0
37002,243,0
37006,59,0
37010,0,0
37014,52,0
37018,286,0
37022,94,0
37026,0,0
37030,9,0
37034,270,0
37038,133,0
37042,0,0
37046,0,0
37050,265,0
37054,152,0
37058,0,0
37062,0,0
37066,257,0
37070,164,0
37074,0,0
37078,0,0
37082,234,0
37086,197,0
37090,0,0
37094,0,0
37098,134,0
37102,227,0
37106,39,0
37110,0,0
37114,65,0
37118,271,0
37122,94,0
37126,0,0
37130,5,0
37134,228,0
37138,128,0
37142,0,0
37146,0,0
37150,258,0
37154,177,0
37158,0,0
37162,0,0
37166,257,0
37170,229,0
37174,0,0
37178,0,0
37182,231,0
37186,243,0
37190,0,0
37194,0,0
37198,144,0
37202,264,0
37206,21,0
37210,0,0
37214,105,0
37218,264,0
37222,36,0
37226,0,0
37230,62,0
37234,227,0
37238,110,0
37242,0,0
37246,1,0
37250,222,0
37254,141,0
37258,5,0
37262,0,0
37266,213,0
37270,205,0
37274,0,0
37278,0,0
37282,194,0
37286,236,0
37290,0,0
37294,0,0
37298,143,0
37302,293,0
37306,15,0
37310,0,0
37314,102,0
37318,318,0
37322,38,0
37326,0,0
37330,47,0
37334,241,0
37338,58,0
37342,0,0
37346,29,0
37350,231,0
37354,116,0
37358,0,0
37362,6,0
37366,213,0
37370,143,0
37374,0,0
37378,0,0
37382,179,0
37386,208,0
37390,0,0
37394,0,0
37398,99,0
37402,275,0
37406,68,0
37410,0,0
37414,53,0
37418,302,0
37422,61,0
37426,0,0
37430,47,0
37434,267,0
37438,81,0
37442,0,0
37446,18,0
37450,274,0
37454,109,0
37458,0,0
37462,0,0
37466,240,0
37470,130,0
37474,0,0
37478,0,0
37482,203,0
37486,177,0
37490,0,0
37494,0,0
37498,104,0
37502,223,0
37506,52,0
37510,0,0
37514,54,0
37518,281,0
37522,58,0
37526,0,0
37530,13,0
37534,250,0
37538,114,0
37542,0,0
37546,0,0
37550,270,0
37554,155,0
37558,0,0
37562,0,0
37566,268,0
37570,156,0
37574,0,0
37578,3,0
37582,239,0
37586,182,0
37590,0,0
37594,0,0
37598,160,0
37602,224,0
37606,23,0
37610,0,0
37614,83,0
37618,255,0
37622,50,0
37626,0,0
37630,33,0
37634,211,0
37638,112,0
37642,0,0
37646,0,0
37650,244,0
37654,155,0
37658,0,0
37662,0,0
37666,251,0
37670,180,0
37674,0,0
37678,0,0
37682,234,0
37686,223,0
37690,0,0
37694,0,0
37698,174,0
37702,279,0
37706,8,0
37710,0,0
37714,104,0
37718,278,0
37722,4,0
37726,0,0
37730,66,0
37734,209,0
37738,65,0
37742,0,0
37746,10,0
37750,225,0
37754,161,0
37758,0,0
37762,0,0
37766,219,0
37770,169,0
37774,0,0
37778,0,0
37782,207,0
37786,220,0
37790,0,0
37794,0,0
37798,155,0
37802,275,0
37806,6,0
37810,0,0
37814,95,0
37818,306,0
37822,9,0
37826,0,0
37830,73,0
37834,299,0
37838,62,0
37842,0,0
37846,37,0
37850,231,0
37854,97,0
37858,0,0
37862,2,0
37866,212,0
37870,131,0
37874,0,0
37878,0,0
37882,185,0
37886,229,0
37890,0,0
37894,0,0
37898,131,0
37902,269,0
37906,44,0
37910,0,0
37914,68,0
37918,312,0
37922,41,0
37926,0,0
37930,58,0
37934,319,0
37938,64,0
37942,0,0
37946,40,0
37950,273,0
37954,96,0
37958,0,0
37962,1,0
37966,226,0
37970,120,0
37974,0,0
37978,0,0
37982,197,0
37986,162,0
37990,0,0
37994,0,0
37998,142,0
38002,212,0
38006,29,0
38010,0,0
38014,54,0
38018,271,0
38022,79,0
38026,0,0
38030,25,0
38034,303,0
38038,101,0
38042,0,0
38046,9,0
38050,268,0
38054,124,0
38058,0,0
38062,0,0
38066,267,0
38070,139,0
38074,0,0
38078,0,0
38082,248,0
38086,183,0
38090,0,0
38094,0,0
38098,178,0
38102,212,0
38106,7,0
38110,0,0
38114,77,0
38118,255,0
38122,51,0
38126,0,0
38130,36,0
38134,241,0
38138,88,0
38142,0,0
38146,5,0
38150,244,0
38154,143,0
38158,0,0
38162,0,0
38166,255,0
38170,172,0
38174,0,0
38178,0,0
38182,241,0
38186,212,0
38190,0,0
38194,0,0
38198,202,0
38202,254,0
38206,0,0
38210,0,0
38214,113,0
38218,273,0
38222,15,0
38226,0,0
38230,81,0
38234,245,0
38238,55,0
38242,0,0
38246,24,0
38250,237,0
38254,148,0
38258,0,0
38262,0,0
38266,226,0
38270,173,0
38274,0,0
38278,0,0
38282,210,0
38286,236,0
38290,0,0
38294,0,0
38298,195,0
38302,270,0
38306,8,0
38310,0,0
38314,119,0
38318,308,0
38322,12,0
38326,0,0
38330,93,0
38334,270,0
38338,40,0
38342,0,0
38346,45,0
38350,238,0
38354,93,0
38358,0,0
38362,8,0
38366,218,0
38370,148,0
38374,0,0
38378,0,0
38382,200,0
38386,213,0
38390,0,0
38394,0,0
38398,174,0
38402,268,0
38406,19,0
38410,0,0
38414,73,0
38418,335,0
38422,47,0
38426,0,0
38430,80,0
38434,336,0
38438,49,0
38442,0,0
38446,55,0
38450,264,0
38454,81,0
38458,0,0
38462,10,0
38466,249,0
38470,118,0
38474,0,0
38478,0,0
38482,219,0
38486,170,0
38490,0,0
38494,0,0
38498,170,0
38502,232,0
38506,12,0
38510,0,0
38514,79,0
38518,293,0
38522,67,0
38526,0,0
38530,42,0
38534,308,0
38538,98,0
38542,0,0
38546,26,0
38550,283,0
38554,116,0
38558,0,0
38562,8,0
38566,281,0
38570,132,0
38574,0,0
38578,0,0
38582,270,0
38586,167,0
38590,0,0
38594,0,0
38598,222,0
38602,202,0
38606,8,0
38610,0,0
38614,88,0
38618,253,0
38622,62,0
38626,0,0
38630,55,0
38634,269,0
38638,91,0
38642,0,0
38646,3,0
38650,253,0
38654,132,0
38658,0,0
38662,0,0
38666,264,0
38670,168,0
38674,0,0
38678,0,0
38682,248,0
38686,165,0
38690,0,0
38694,17,0
38698,224,0
38702,176,0
38706,0,0
38710,0,0
38714,121,0
38718,232,0
38722,21,0
38726,0,0
38730,60,0
38734,234,0
38738,71,0
38742,0,0
38746,7,0
38750,216,0
38754,130,0
38758,0,0
38762,0,0
38766,231,0
38770,156,0
38774,0,0
38778,0,0
38782,241,0
38786,201,0
38790,0,0
38794,0,0
38798,223,0
38802,240,0
38806,0,0
38810,0,0
38814,128,0
38818,249,0
38822,14,0
38826,0,0
38830,104,0
38834,253,0
38838,17,0
38842,0,0
38846,55,0
38850,219,0
38854,78,0
38858,0,0
38862,0,0
38866,210,0
38870,152,0
38874,0,0
38878,0,0
38882,202,0
38886,187,0
38890,0,0
38894,0,0
38898,183,0
38902,239,0
38906,0,0
38910,0,0
38914,133,0
38918,289,0
38922,16,0
38926,0,0
38930,102,0
38934,317,0
38938,35,0
38942,0,0
38946,59,0
38950,252,0
38954,70,0
38958,0,0
38962,36,0
38966,241,0
38970,116,0
38974,0,0
38978,0,0
38982,205,0
38986,144,0
38990,0,0
38994,0,0
38998,189,0
39002,233,0
39006,2,0
39010,0,0
39014,98,0
39018,293,0
39022,69,0
39026,0,0
39030,54,0
39034,320,0
39038,65,0
39042,0,0
39046,42,0
39050,282,0
39054,84,0
39058,0,0
39062,6,0
39066,282,0
39070,118,0
39074,0,0
39078,0,0
39082,247,0
39086,146,0
39090,0,0
39094,0,0
39098,199,0
39102,186,0
39106,0,0
39110,0,0
39114,110,0
39118,227,0
39122,41,0
39126,0,0
39130,49,0
39134,291,0
39138,63,0
39142,0,0
39146,15,0
39150,257,0
39154,108,0
39158,0,0
39162,0,0
39166,273,0
39170,146,0
39174,0,0
39178,1,0
39182,267,0
39186,141,0
39190,0,0
39194,0,0
39198,236,0
39202,184,0
39206,0,0
39210,0,0
39214,153,0
39218,217,0
39222,38,0
39226,0,0
39230,63,0
39234,251,0
39238,63,0
39242,0,0
39246,28,0
39250,214,0
39254,113,0
39258,0,0
39262,0,0
39266,256,0
39270,157,0
39274,0,0
39278,0,0
39282,258,0
39286,181,0
39290,0,0
39294,0,0
39298,230,0
39302,211,0
39306,0,0
39310,0,0
39314,170,0
39318,233,0
39322,2,0
39326,0,0
39330,108,0
39334,258,0
39338,21,0
39342,0,0
39346,46,0
39350,215,0
39354,80,0
39358,0,0
39362,4,0
39366,230,0
39370,160,0
39374,0,0
39378,0,0
39382,220,0
39386,188,0
39390,0,0
39394,0,0
39398,225,0
39402,252,0
39406,0,0
39410,0,0
39414,170,0
39418,293,0
39422,32,0
39426,0,0
39430,125,0
39434,316,0
39438,17,0
39442,0,0
39446,74,0
39450,248,0
39454,57,0
39458,0,0
39462,32,0
39466,249,0
39470,114,0
39474,0,0
39478,0,0
39482,219,0
39486,158,0
39490,0,0
39494,0,0
39498,188,0
39502,217,0
39506,0,0
39510,0,0
39514,128,0
39518,286,0
39522,42,0
39526,0,0
39530,77,0
39534,322,0
39538,39,0
39542,0,0
39546,72,0
39550,313,0
39554,58,0
39558,0,0
39562,33,0
39566,282,0
39570,107,0
39574,0,0
39578,0,0
39582,238,0
39586,125,0
39590,0,0
39594,0,0
39598,196,0
39602,202,0
39606,0,0
39610,0,0
39614,138,0
39618,242,0
39622,41,0
39626,0,0
39630,47,0
39634,314,0
39638,73,0
39642,0,0
39646,23,0
39650,321,0
39654,102,0
39658,0,0
39662,14,0
39666,281,0
39670,126,0
39674,0,0
39678,0,0
39682,269,0
39686,121,0
39690,0,0
39694,0,0
39698,245,0
39702,155,0
39706,0,0
39710,0,0
39714,181,0
39718,212,0
39722,14,0
39726,0,0
39730,54,0
39734,255,0
39738,48,0
39742,0,0
39746,27,0
39750,276,0
39754,95,0
39758,0,0
39762,0,0
39766,256,0
39770,149,0
39774,0,0
39778,0,0
39782,237,0
39786,174,0
39790,0,0
39794,0,0
39798,242,0
39802,203,0
39806,0,0
39810,0,0
39814,206,0
39818,213,0
39822,0,0
39826,0,0
39830,109,0
39834,261,0
39838,12,0
39842,0,0
39846,71,0
39850,239,0
39854,72,0
39858,0,0
39862,3,0
39866,217,0
39870,133,0
39874,0,0
39878,0,0
39882,209,0
39886,168,0
39890,0,0
39894,0,0
39898,242,0
39902,236,0
39906,0,0
39910,0,0
39914,198,0
39918,257,0
39922,0,0
39926,0,0
39930,109,0
39934,271,0
39938,7,0
39942,0,0
39946,94,0
39950,243,0
39954,56,0
39958,0,0
39962,36,0
39966,227,0
39970,80,0
39974,0,0
39978,2,0
39982,243,0
39986,169,0
39990,0,0
39994,0,0
39998,187,0
40002,217,0
40006,0,0
40010,0,0
40014,171,0
40018,250,0
40022,0,0
40026,0,0
40030,89,0
40034,290,0
40038,23,0
40042,0,0
40046,88,0
40050,283,0
40054,38,0
40058,0,0
40062,55,0
40066,257,0
40070,81,0
40074,0,0
40078,14,0
40082,224,0
40086,130,0
40090,0,0
40094,0,0
40098,206,0
40102,193,0
40106,0,0
40110,0,0
40114,169,0
40118,254,0
40122,31,0
40126,0,0
40130,73,0
40134,309,0
40138,49,0
40142,0,0
40146,69,0
40150,303,0
40154,51,0
40158,0,0
40162,37,0
40166,274,0
40170,76,0
40174,0,0
40178,1,0
40182,249,0
40186,95,0
40190,0,0
40194,0,0
40198,190,0
40202,124,0
40206,0,0
40210,0,0
40214,162,0
40218,186,0
40222,0,0
40226,0,0
40230,58,0
40234,243,0
40238,9,0
40242,0,0
40246,2,0
40250,233,0
40254,15,0
40258,0,0
40262,4,0
40266,234,0
40270,36,0
40274,0,0
40278,0,0
40282,204,0
40286,23,0
40290,0,0
40294,0,0
40298,210,0
40302,77,0
40306,0,0
40310,0,0
40314,149,0
40318,74,0
40322,0,0
40326,0,0
40330,38,0
40334,121,0
40338,0,0
40342,0,0
40346,41,0
40350,388,0
40354,156,0
40358,0,0
40362,20,0
40366,219,0
40370,50,0
40374,0,0
40378,0,0
40382,188,0
40386,13,0
40390,0,0
40394,0,0
40398,140,0
40402,8,0
40406,0,0
40410,0,0
40414,238,0
40418,146,0
40422,0,0
40426,0,0
40430,92,0
40434,51,0
40438,0,0
40442,0,0
40446,38,0
40450,92,0
40454,0,0
40458,0,0
40462,25,0
40466,102,0
40470,0,0
40474,0,0
40478,1,0
40482,155,0
40486,5,0
40490,0,0
40494,0,0
40498,86,0
40502,0,0
40506,0,0
40510,0,0
40514,120,0
40518,0,0
40522,0,0
40526,0,0
40530,54,0
40534,0,0
40538,0,0
40542,0,0
40546,93,0
40550,45,0
40554,0,0
40558,0,0
40562,67,0
40566,5,0
40570,0,0
40574,0,0
40578,30,0
40582,31,0
40586,0,0
40590,0,0
40594,0,0
40598,0,0
40602,0,0
40606,0,0
40610,0,0
40614,161,0
40618,0,0
40622,0,0
40626,20,0
40630,292,0
40634,28,0
40638,0,0
40642,0,0
40646,212,0
40650,117,0
40654,0,0
40658,0,0
40877,60,0
40878,123,0
40882,177,0
40886,0,0
40890,0,0
40894,182,0
40898,265,0
40902,0,0
40906,0,0
40910,156,0
40914,317,0
40918,0,0
40922,0,0
40926,112,0
40930,289,0
40934,1,0
40938,0,0
40942,86,0
40946,245,0
40950,73,0
40954,0,0
40958,46,0
40962,207,0
40966,79,0
40970,0,0
40974,12,0
40978,183,0
40982,195,0
40986,0,0
40990,0,0
40994,149,0
40998,282,0
41002,0,0
41006,0,0
41010,109,0
41014,316,0
41018,4,0
41022,0,0
41026,97,0
41030,311,0
41034,27,0
41038,0,0
41042,77,0
41046,290,0
41050,93,0
41054,0,0
41058,24,0
41062,274,0
41066,90,0
41070,0,0
41074,5,0
41078,198,0
41082,155,0
41086,0,0
41090,0,0
41094,138,0
41098,197,0
41102,0,0
41106,0,0
41110,81,0
41114,260,0
41118,0,0
41122,0,0
41126,30,0
41130,264,0
41134,71,0
41138,0,0
41142,19,0
41146,312,0
41150,165,0
41154,0,0
41158,6,0
41162,311,0
41166,230,0
41170,0,0
41174,31,0
41178,260,0
41182,188,0
41186,0,0
41190,0,0
41194,182,0
41198,213,0
41202,0,0
41206,0,0
41210,95,0
41214,255,0
41218,11,0
41222,0,0
41226,36,0
41230,253,0
41234,105,0
41238,1,0
41242,0,0
41246,222,0
41250,162,0
41254,0,0
41258,0,0
41262,199,0
41266,118,0
41270,0,0
41274,0,0
41278,175,0
41282,163,0
41286,0,0
41290,0,0
41294,153,0
41298,186,0
41302,0,0
41306,0,0
41310,147,0
41314,227,0
41318,0,0
41322,0,0
41326,95,0
41330,239,0
41334,18,0
41338,0,0
41342,20,0
41346,190,0
41350,115,0
41354,0,0
41358,0,0
41362,160,0
41366,123,0
41370,0,0
41374,0,0
41378,139,0
41382,201,0
41386,0,0
41390,0,0
41394,152,0
41398,246,0
41402,0,0
41406,0,0
41410,206,0
41414,369,0
41418,0,0
41422,0,0
41426,266,0
41430,500,0
41434,51,0
41438,0,0
41442,356,0
41446,614,0
41450,160,0
41454,0,0
41458,287,0
41462,641,0
41466,243,0
41470,0,0
41474,207,0
41478,645,0
41482,368,0
41486,0,0
41490,69,0
41494,638,0
41498,579,0
41502,0,0
41506,0,0
41510,616,0
41514,678,0
41518,0,0
41522,0,0
41526,587,0
41530,724,0
41534,1,0
41538,0,0
41542,510,0
41546,741,0
41550,119,0
41554,0,0
41558,348,0
41562,673,0
41566,228,0
41570,0,0
41574,192,0
41578,580,0
41582,297,0
41586,0,0
41590,36,0
41594,494,0
41598,412,0
41602,0,0
41606,7,0
41610,515,0
41614,578,0
41618,0,0
41622,0,0
41626,470,0
41630,671,0
41634,28,0
41638,0,0
41642,421,0
41646,706,0
41650,136,0
41654,0,0
41658,375,0
41662,759,0
41666,226,0
41670,0,0
41674,255,0
41678,698,0
41682,325,0
41686,0,0
41690,132,0
41694,668,0
41698,558,0
41702,0,0
41706,19,0
41710,419,0
41714,495,0
41718,63,0
41722,0,0
41726,217,0
41730,433,0
41734,94,0
41738,0,0
41742,137,0
41746,486,0
41750,208,0
41754,0,0
41758,87,0
41762,532,0
41766,282,0
41770,0,0
41774,52,0
41778,507,0
41782,313,0
41786,0,0
41790,24,0
41794,484,0
41798,381,0
41802,0,0
41806,2,0
41810,521,0
41814,481,0
41818,0,0
41822,0,0
41826,474,0
41830,565,0
41834,6,0
41838,0,0
41842,362,0
41846,549,0
41850,130,0
41854,0,0
41858,248,0
41862,612,0
41866,250,0
41870,0,0
41874,168,0
41878,619,0
41882,354,0
41886,0,0
41890,23,0
41894,627,0
41898,505,0
41902,0,0
41906,0,0
41910,604,0
41914,608,0
41918,0,0
41922,0,0
41926,566,0
41930,633,0
41934,0,0
41938,0,0
41942,501,0
41946,623,0
41950,38,0
41954,0,0
41958,397,0
41962,657,0
41966,149,0
41970,0,0
41974,264,0
41978,657,0
41982,290,0
41986,0,0
41990,92,0
41994,626,0
41998,476,0
42002,0,0
42006,0,0
42010,592,0
42014,603,0
42018,0,0
42022,0,0
42026,561,0
42030,684,0
42034,0,0
42038,0,0
42042,534,0
42046,724,0
42050,30,0
42054,0,0
42058,448,0
42062,773,0
42066,130,0
42070,0,0
42074,354,0
42078,742,0
42082,248,0
42086,0,0
42090,185,0
42094,677,0
42098,390,0
42102,0,0
42106,78,0
42110,644,0
42114,564,0
42118,0,0
42122,1,0
42126,576,0
42130,676,0
42134,0,0
42138,0,0
42142,491,0
42146,733,0
42150,79,0
42154,0,0
42158,428,0
42162,798,0
42166,158,0
42170,0,0
42174,349,0
42178,806,0
42182,266,0
42186,0,0
42190,205,0
42194,800,0
42198,424,0
42202,0,0
42206,107,0
42210,769,0
42214,574,0
42218,0,0
42222,3,0
42226,645,0
42230,664,0
42234,0,0
42238,0,0
42242,546,0
42246,688,0
42250,70,0
42254,0,0
42258,450,0
42262,782,0
42266,198,0
42270,0,0
42274,336,0
42278,832,0
42282,323,0
42286,0,0
42290,159,0
42294,818,0
42298,481,0
42302,0,0
42306,76,0
42310,791,0
42314,612,0
42318,0,0
42322,4,0
42326,735,0
42330,681,0
42334,0,0
42338,0,0
42342,634,0
42346,709,0
42350,25,0
42354,0,0
42358,518,0
42362,761,0
42366,178,0
42370,0,0
42374,375,0
42378,753,0
42382,308,0
42386,0,0
42390,183,0
42394,769,0
42398,488,0
42402,0,0
42406,67,0
42410,785,0
42414,679,0
42418,0,0
42422,0,0
42426,744,0
42430,762,0
42434,0,0
42438,0,0
42442,667,0
42446,786,0
42450,4,0
42454,0,0
42458,591,0
42462,826,0
42466,129,0
42470,0,0
42474,481,0
42478,802,0
42482,264,0
42486,0,0
42490,297,0
42494,804,0
42498,489,0
42502,0,0
42506,115,0
42510,758,0
42514,672,0
42518,0,0
42522,0,0
42526,691,0
42530,782,0
42534,0,0
42538,0,0
42542,626,0
42546,820,0
42550,52,0
42554,0,0
42558,587,0
42562,912,0
42566,174,0
42570,0,0
42574,483,0
42578,913,0
42582,297,0
42586,0,0
42590,325,0
42594,841,0
42598,477,0
42602,0,0
42606,215,0
42610,821,0
42614,669,0
42618,0,0
42622,83,0
42626,764,0
42630,814,0
42634,62,0
42638,2,0
42642,682,0
42646,918,0
42650,234,0
42654,0,0
42658,616,0
42662,1009,0
42666,367,0
42670,0,0
42674,475,0
42678,997,0
42682,420,0
42686,0,0
42690,367,0
42694,964,0
42698,540,0
42702,0,0
42706,216,0
42710,894,0
42714,664,0
42718,0,0
42722,72,0
42726,754,0
42730,740,0
42734,0,0
42738,18,0
42742,632,0
42746,747,0
42750,89,0
42754,0,0
42758,524,0
42762,817,0
42766,198,0
42770,0,0
42774,332,0
42778,850,0
42782,303,0
42786,0,0
42790,195,0
42794,810,0
42798,421,0
42802,0,0
42806,60,0
42810,750,0
42814,511,0
42818,0,0
42822,6,0
42826,651,0
42830,579,0
42834,0,0
42838,0,0
42842,597,0
42846,631,0
42850,0,0
42854,0,0
42858,518,0
42862,735,0
42866,117,0
42870,0,0
42874,342,0
42878,788,0
42882,319,0
42886,0,0
42890,221,0
42894,783,0
42898,515,0
42902,0,0
42906,77,0
42910,783,0
42914,663,0
42918,0,0
42922,0,0
42926,679,0
42930,707,0
42934,0,0
42938,0,0
42942,562,0
42946,653,0
42950,0,0
42954,0,0
42958,436,0
42962,626,0
42966,0,0
42970,0,0
42974,298,0
42978,650,0
42982,85,0
42986,0,0
42990,214,0
42994,679,0
42998,338,0
43002,0,0
43006,89,0
43010,718,0
43014,587,0
43018,0,0
43022,1,0
43026,668,0
43030,679,0
43034,0,0
43038,0,0
43042,575,0
43046,671,0
43050,0,0
43054,0,0
43058,506,0
43062,714,0
43066,0,0
43070,0,0
43074,361,0
43078,731,0
43082,51,0
43086,0,0
43090,269,0
43094,734,0
43098,278,0
43102,0,0
43106,268,0
43110,893,0
43114,624,0
43118,0,0
43122,200,0
43126,922,0
43130,918,0
43134,64,0
43138,67,0
43142,850,0
43146,1004,0
43150,202,0
43154,0,0
43158,737,0
43162,1046,0
43166,319,0
43170,0,0
43174,543,0
43178,1017,0
43182,326,0
43186,0,0
43190,456,0
43194,1016,0
43198,434,0
43202,0,0
43206,127,0
43210,694,0
43214,544,0
43218,5,0
43222,0,0
43226,66,0
43230,108,0
43234,0,0
43238,0,0
43242,33,0
43246,159,0
43250,0,0
43254,0,0
43258,9,0
43262,176,0
43266,50,0
43270,0,0
43274,0,0
43278,176,0
43282,40,0
43286,0,0
43290,0,0
43294,163,0
43298,93,0
43302,0,0
43306,0,0
43310,154,0
43314,130,0
43318,0,0
43322,0,0
43326,156,0
43330,162,0
43334,0,0
43338,0,0
43342,76,0
43346,125,0
43350,0,0
43354,0,0
43358,23,0
43362,146,0
43366,37,0
43370,0,0
43374,0,0
43378,79,0
43382,2,0
43386,0,0
43390,0,0
43394,143,0
43398,180,0
43402,0,0
43406,0,0
43410,212,0
43414,237,0
43418,0,0
43422,0,0
43426,118,0
43430,228,0
43434,0,0
43438,0,0
43442,112,0
43446,225,0
43450,0,0
43454,0,0
43458,96,0
43462,188,0
43466,15,0
43470,0,0
43474,37,0
43478,166,0
43482,6,0
43486,0,0
43490,0,0
43494,0,0
43498,0,0
43502,0,0
43506,0,0
43510,85,0
43514,116,0
43518,0,0
43522,0,0
43526,0,0
43530,0,0
43534,0,0
43538,0,0
43542,0,0
43546,0,0
43550,0,0
43554,0,0
43558,66,0
43562,198,0
43566,0,0
43570,0,0
43574,40,0
43578,132,0
43582,0,0
43586,0,0
43590,0,0
43594,82,0
43598,35,0
43602,0,0
43606,895,0
43610,1917,0
43614,1804,1
43618,983,0
43622,1001,0
43626,1634,0
43630,1591,0
43634,753,0
43638,551,0
43642,1254,0
43646,1418,0
43650,607,0
43654,249,0
43658,988,0
43662,1292,0
43666,517,0
43670,0,0
43674,737,0
43678,1137,0
43682,399,0
43686,0,0
43690,540,0
43694,1039,0
43698,481,0
43702,0,0
43706,323,0
43710,962,0
43714,647,0
43718,0,0
43722,161,0
43726,819,0
43730,731,0
43734,0,0
43738,26,0
43742,680,0
43746,731,0
43750,27,0
43754,7,0
43758,596,0
43762,825,0
43766,190,0
43770,0,0
43774,432,0
43778,910,0
43782,292,0
43786,0,0
43790,341,0
43794,886,0
43798,446,0
43802,0,0
43806,218,0
43810,886,0
43814,575,0
43818,0,0
43822,108,0
43826,825,0
43830,674,0
43834,0,0
43838,15,0
43842,740,0
43846,705,0
43850,14,0
43854,4,0
43858,645,0
43862,786,0
43866,168,0
43870,0,0
43874,509,0
43878,841,0
43882,294,0
43886,0,0
43890,394,0
43894,907,0
43898,462,0
43902,0,0
43906,201,0
43910,864,0
43914,629,0
43918,0,0
43922,56,0
43926,826,0
43930,681,0
43934,0,0
43938,5,0
43942,747,0
43946,703,0
43950,0,0
43954,0,0
43958,724,0
43962,826,0
43966,164,0
43970,0,0
43974,675,0
43978,989,0
43982,401,0
43986,0,0
43990,521,0
43994,954,0
43998,573,0
44002,0,0
44006,286,0
44010,897,0
44014,677,0
44018,0,0
44022,124,0
44026,872,0
44030,819,0
44034,0,0
44038,4,0
44042,866,0
44046,892,0
44050,96,0
44054,0,0
44058,752,0
44062,913,0
44066,246,0
44070,0,0
44074,638,0
44078,921,0
44082,279,0
44086,0,0
44090,494,0
44094,863,0
44098,396,0
44102,0,0
44106,240,0
44110,839,0
44114,492,0
44118,0,0
44122,53,0
44126,697,0
44130,690,0
44134,0,0
44138,0,0
44142,572,0
44146,639,0
44150,0,0
44154,0,0
44158,492,0
44162,665,0
44166,0,0
44170,0,0
44174,430,0
44178,717,0
44182,0,0
44186,0,0
44190,331,0
44194,716,0
44198,152,0
44202,0,0
44206,200,0
44210,728,0
44214,392,0
44218,0,0
44222,112,0
44226,713,0
44230,597,0
44234,0,0
44238,4,0
44242,651,0
44246,694,0
44250,0,0
44254,0,0
44258,566,0
44262,757,0
44266,79,0
44270,0,0
44274,427,0
44278,761,0
44282,85,0
44286,0,0
44290,300,0
44294,729,0
44298,165,0
44302,0,0
44306,184,0
44310,752,0
44314,337,0
44318,0,0
44322,69,0
44326,675,0
44330,476,0
44334,0,0
44338,0,0
44342,598,0
44346,554,0
44350,0,0
44354,0,0
44358,539,0
44362,687,0
44366,63,0
44370,0,0
44374,444,0
44378,758,0
44382,207,0
44386,0,0
44390,331,0
44394,814,0
44398,337,0
44402,0,0
44406,207,0
44410,824,0
44414,483,0
44418,0,0
44422,106,0
44426,799,0
44430,606,0
44434,0,0
44438,2,0
44442,717,0
44446,645,0
44450,0,0
44454,0,0
44458,583,0
44462,670,0
44466,84,0
44470,0,0
44474,471,0
44478,705,0
44482,197,0
44486,0,0
44490,264,0
44494,727,0
44498,239,0
44502,0,0
44506,79,0
44510,727,0
44514,429,0
44518,0,0
44522,0,0
44526,696,0
44530,543,0
44534,0,0
44538,0,0
44542,617,0
44546,576,0
44550,0,0
44554,0,0
44558,546,0
44562,597,0
44566,0,0
44570,0,0
44574,428,0
44578,631,0
44582,93,0
44586,0,0
44590,268,0
44594,641,0
44598,241,0
44602,0,0
44606,126,0
44610,662,0
44614,431,0
44618,0,0
44622,3,0
44626,685,0
44630,567,0
44634,0,0
44638,0,0
44642,610,0
44646,553,0
44650,0,0
44654,0,0
44658,461,0
44662,571,0
44666,28,0
44670,0,0
44674,331,0
44678,583,0
44682,171,0
44686,0,0
44690,201,0
44694,299,0
44698,89,0
44702,0,0
44706,6,0
44710,216,0
44714,222,0
44718,0,0
44722,0,0
44726,121,0
44730,210,0
44734,0,0
44738,0,0
44742,103,0
44746,246,0
44750,0,0
44754,0,0
44758,89,0
44762,208,0
44766,0,0
44770,0,0
44774,13,0
44778,160,0
44782,0,0
44786,0,0
44790,13,0
44794,195,0
44798,28,0
44802,0,0
44806,0,0
44810,176,0
44814,159,0
44818,4,0
44822,0,0
44826,167,0
44830,247,0
44834,0,0
44838,0,0
44842,119,0
44846,300,0
44850,8,0
44854,0,0
44858,434,0
44862,801,0
44866,315,0
44870,0,0
44874,491,0
44878,864,0
44882,286,0
44886,0,0
44890,411,0
44894,843,0
44898,316,0
44902,0,0
44906,245,0
44910,788,0
44914,456,0
44918,0,0
44922,119,0
44926,734,0
44930,570,0
44934,0,0
44938,4,0
44942,646,0
44946,646,0
44950,0,0
44954,4,0
44958,581,0
44962,728,0
44966,118,0
44970,0,0
44974,482,0
44978,802,0
44982,214,0
44986,0,0
44990,327,0
44994,781,0
44998,295,0
45002,0,0
45006,148,0
45010,758,0
45014,408,0
45018,0,0
45022,42,0
45026,720,0
45030,494,0
45034,0,0
45038,0,0
45042,677,0
45046,581,0
45050,0,0
45054,0,0
45058,596,0
45062,675,0
45066,43,0
45070,0,0
45074,517,0
45078,793,0
45082,199,0
45086,0,0
45090,385,0
45094,783,0
45098,320,0
45102,0,0
45106,179,0
45110,728,0
45114,436,0
45118,0,0
45122,36,0
45126,734,0
45130,608,0
45134,0,0
45138,0,0
45142,695,0
45146,685,0
45150,0,0
45154,0,0
45158,625,0
45162,709,0
45166,0,0
45170,0,0
45174,543,0
45178,730,0
45182,33,0
45186,0,0
45190,415,0
45194,728,0
45198,206,0
45202,0,0
45206,228,0
45210,738,0
45214,432,0
45218,0,0
45222,87,0
45226,701,0
45230,622,0
45234,0,0
45238,0,0
45242,647,0
45246,704,0
45250,0,0
45254,0,0
45258,603,0
45262,746,0
45266,0,0
45270,0,0
45274,534,0
45278,801,0
45282,36,0
45286,0,0
45290,425,0
45294,805,0
45298,153,0
45302,0,0
45306,261,0
45310,746,0
45314,336,0
45318,0,0
45322,135,0
45326,708,0
45330,510,0
45334,0,0
45338,11,0
45342,646,0
45346,613,0
45350,0,0
45354,0,0
45358,591,0
45362,723,0
45366,9,0
45370,0,0
45374,495,0
45378,794,0
45382,93,0
45386,0,0
45390,391,0
45394,793,0
45398,131,0
45402,0,0
45406,236,0
45410,824,0
45414,372,0
45418,0,0
45422,131,0
45426,803,0
45430,551,0
45434,0,0
45438,21,0
45442,693,0
45446,614,0
45450,0,0
45454,1,0
45458,584,0
45462,636,0
45466,0,0
45470,0,0
45474,492,0
45478,770,0
45482,140,0
45486,0,0
45490,386,0
45494,821,0
45498,297,0
45502,0,0
45506,220,0
45510,835,0
45514,444,0
45518,0,0
45522,93,0
45526,812,0
45530,582,0
45534,0,0
45538,8,0
45542,740,0
45546,626,0
45550,0,0
45554,0,0
45558,659,0
45562,689,0
45566,4,0
45570,0,0
45574,548,0
45578,772,0
45582,155,0
45586,0,0
45590,420,0
45594,791,0
45598,312,0
45602,0,0
45606,230,0
45610,762,0
45614,460,0
45618,0,0
45622,80,0
45626,772,0
45630,621,0
45634,0,0
45638,0,0
45642,719,0
45646,700,0
45650,0,0
45654,0,0
45658,642,0
45662,683,0
45666,0,0
45670,0,0
45674,601,0
45678,773,0
45682,56,0
45686,0,0
45690,525,0
45694,834,0
45698,251,0
45702,0,0
45706,336,0
45710,816,0
45714,478,0
45718,0,0
45722,160,0
45726,786,0
45730,668,0
45734,0,0
45738,9,0
45742,697,0
45746,735,0
45750,0,0
45754,0,0
45758,652,0
45762,772,0
45766,0,0
45770,0,0
45774,586,0
45778,848,0
45782,54,0
45786,0,0
45790,490,0
45794,833,0
45798,183,0
45802,0,0
45806,319,0
45810,803,0
45814,358,0
45818,0,0
45822,188,0
45826,766,0
45830,539,0
45834,0,0
45838,51,0
45842,705,0
45846,684,0
45850,0,0
45854,0,0
45858,606,0
45862,749,0
45866,18,0
45870,0,0
45874,529,0
45878,844,0
45882,128,0
45886,0,0
45890,447,0
45894,847,0
45898,208,0
45902,0,0
45906,288,0
45910,838,0
45914,353,0
45918,0,0
45922,168,0
45926,805,0
45930,509,0
45934,0,0
45938,38,0
45942,704,0
45946,604,0
45950,0,0
45954,31,0
45958,605,0
45962,647,0
45966,0,0
45970,8,0
45974,524,0
45978,765,0
45982,111,0
45986,0,0
45990,413,0
45994,826,0
45998,244,0
46002,0,0
46006,231,0
46010,829,0
46014,416,0
46018,0,0
46022,131,0
46026,825,0
46030,551,0
46034,0,0
46038,32,0
46042,778,0
46046,636,0
46050,0,0
46054,3,0
46058,706,0
46062,692,0
46066,3,0
46070,0,0
46074,577,0
46078,772,0
46082,119,0
46086,0,0
46090,445,0
46094,772,0
46098,249,0
46102,0,0
46106,257,0
46110,788,0
46114,424,0
46118,0,0
46122,114,0
46126,821,0
46130,612,0
46134,0,0
46138,2,0
46142,809,0
46146,738,0
46150,0,0
46154,0,0
46158,743,0
46162,758,0
46166,0,0
46170,0,0
46174,664,0
46178,811,0
46182,99,0
46186,0,0
46190,540,0
46194,798,0
46198,202,0
46202,0,0
46206,306,0
46210,782,0
46214,411,0
46218,0,0
46222,137,0
46226,773,0
46230,593,0
46234,0,0
46238,0,0
46242,719,0
46246,677,0
46250,0,0
46254,0,0
46258,620,0
46262,729,0
46266,0,0
46270,0,0
46274,580,0
46278,793,0
46282,40,0
46286,0,0
46290,461,0
46294,792,0
46298,141,0
46302,0,0
46306,322,0
46310,782,0
46314,312,0
46318,0,0
46322,196,0
46326,761,0
46330,505,0
46334,0,0
46338,42,0
46342,695,0
46346,664,0
46350,0,0
46354,2,0
46358,608,0
46362,772,0
46366,5,0
46370,0,0
46374,529,0
46378,812,0
46382,107,0
46386,0,0
46390,436,0
46394,856,0
46398,191,0
46402,0,0
46406,313,0
46410,835,0
46414,328,0
46418,0,0
46422,179,0
46426,814,0
46430,492,0
46434,0,0
46438,66,0
46442,720,0
46446,607,0
46450,0,0
46454,9,0
46458,619,0
46462,654,0
46466,1,0
46470,0,0
46474,549,0
46478,801,0
46482,133,0
46486,0,0
46490,394,0
46494,832,0
46498,245,0
46502,0,0
46506,246,0
46510,819,0
46514,391,0
46518,0,0
46522,148,0
46526,819,0
46530,542,0
46534,0,0
46538,52,0
46542,766,0
46546,636,0
46550,0,0
46554,3,0
46558,675,0
46562,678,0
46566,1,0
46570,0,0
46574,542,0
46578,757,0
46582,117,0
46586,0,0
46590,402,0
46594,791,0
46598,244,0
46602,0,0
46606,275,0
46610,822,0
46614,421,0
46618,0,0
46622,112,0
46626,826,0
46630,584,0
46634,0,0
46638,0,0
46642,738,0
46646,658,0
46650,0,0
46654,0,0
46658,681,0
46662,666,0
46666,0,0
46670,0,0
46674,610,0
46678,740,0
46682,6,0
46686,0,0
46690,425,0
46694,752,0
46698,167,0
46702,0,0
46706,272,0
46710,762,0
46714,400,0
46718,0,0
46722,120,0
46726,755,0
46730,579,0
46734,0,0
46738,0,0
46742,700,0
46746,691,0
46750,0,0
46754,0,0
46758,689,0
46762,744,0
46766,0,0
46770,0,0
46774,620,0
46778,819,0
46782,20,0
46786,0,0
46790,450,0
46794,800,0
46798,119,0
46802,0,0
46806,346,0
46810,767,0
46814,291,0
46818,0,0
46822,193,0
46826,746,0
46830,524,0
46834,0,0
46838,26,0
46842,693,0
46846,700,0
46850,0,0
46854,0,0
46858,605,0
46862,751,0
46866,3,0
46870,0,0
46874,587,0
46878,860,0
46882,70,0
46886,0,0
46890,448,0
46894,880,0
46898,159,0
46902,0,0
46906,353,0
46910,853,0
46914,321,0
46918,0,0
46922,202,0
46926,797,0
46930,484,0
46934,0,0
46938,90,0
46942,711,0
46946,643,0
46950,0,0
46954,26,0
46958,624,0
46962,706,0
46966,26,0
46970,0,0
46974,571,0
46978,812,0
46982,139,0
46986,0,0
46990,406,0
46994,877,0
46998,250,0
47002,0,0
47006,322,0
47010,882,0
47014,420,0
47018,0,0
47022,191,0
47026,871,0
47030,542,0
47034,0,0
47038,66,0
47042,790,0
47046,627,0
47050,0,0
47054,7,0
47058,701,0
47062,684,0
47066,0,0
47070,0,0
47074,598,0
47078,777,0
47082,96,0
47086,0,0
47090,399,0
47094,758,0
47098,197,0
47102,0,0
47106,258,0
47110,773,0
47114,349,0
47118,0,0
47122,109,0
47126,806,0
47130,553,0
47134,0,0
47138,2,0
47142,774,0
47146,690,0
47150,0,0
47154,0,0
47158,694,0
47162,651,0
47166,0,0
47170,0,0
47174,627,0
47178,720,0
47182,32,0
47186,0,0
47190,417,0
47194,718,0
47198,149,0
47202,0,0
47206,173,0
47210,648,0
47214,363,0
47218,0,0
47222,24,0
47226,594,0
47230,445,0
47234,0,0
47238,0,0
47242,531,0
47246,664,0
47250,0,0
47254,0,0
47258,512,0
47262,729,0
47266,34,0
47270,0,0
47274,400,0
47278,660,0
47282,36,0
47286,0,0
47290,294,0
47294,708,0
47298,210,0
47302,0,0
47306,195,0
47310,661,0
47314,316,0
47318,0,0
47322,83,0
47326,610,0
47330,435,0
47334,0,0
47338,3,0
47342,525,0
47346,549,0
47350,0,0
47354,0,0
47358,446,0
47362,603,0
47366,1,0
47370,0,0
47374,389,0
47378,910,0
47382,151,0
47386,0,0
47390,199,0
47394,677,0
47398,175,0
47402,0,0
47406,144,0
47410,663,0
47414,257,0
47418,0,0
47422,72,0
47426,601,0
47430,361,0
47434,0,0
47438,4,0
47442,594,0
47446,556,0
47450,0,0
47454,0,0
47458,450,0
47462,578,0
47466,9,0
47470,0,0
47474,339,0
47478,598,0
47482,90,0
47486,0,0
47490,197,0
47494,605,0
47498,89,0
47502,0,0
47506,124,0
47510,706,0
47514,435,0
47518,0,0
47522,29,0
47526,657,0
47530,468,0
47534,0,0
47538,7,0
47542,617,0
47546,575,0
47550,0,0
47554,0,0
47558,519,0
47562,596,0
47566,16,0
47570,0,0
47574,437,0
47578,700,0
47582,218,0
47586,0,0
47590,315,0
47594,642,0
47598,224,0
47602,0,0
47606,151,0
47610,660,0
47614,419,0
47618,0,0
47622,49,0
47626,665,0
47630,513,0
47634,0,0
47638,0,0
47642,576,0
47646,552,0
47650,0,0
47654,0,0
47658,574,0
47662,663,0
47666,0,0
47670,0,0
47674,497,0
47678,693,0
47682,106,0
47686,0,0
47690,395,0
47694,703,0
47698,173,0
47702,0,0
47706,204,0
47710,626,0
47714,336,0
47718,0,0
47722,71,0
47726,603,0
47730,515,0
47734,0,0
47738,0,0
47742,522,0
47746,591,0
47750,0,0
47754,0,0
47758,481,0
47762,627,0
47766,4,0
47770,0,0
47774,436,0
47778,701,0
47782,71,0
47786,0,0
47790,318,0
47794,691,0
47798,138,0
47802,0,0
47806,226,0
47810,667,0
47814,312,0
47818,0,0
47822,117,0
47826,621,0
47830,447,0
47834,0,0
47838,15,0
47842,554,0
47846,554,0
47850,0,0
47854,0,0
47858,515,0
47862,646,0
47866,0,0
47870,0,0
47874,443,0
47878,750,0
47882,123,0
47886,0,0
47890,143,0
47894,312,0
47898,8,0
47902,0,0
47906,0,0
47910,115,0
47914,0,0
47918,0,0
47922,0,0
47926,202,0
47930,143,0
47934,0,0
47938,50,0
47942,500,0
47946,521,0
47950,54,0
47954,0,0
47958,141,0
47962,232,0
47966,4,0
47970,0,0
47974,44,0
47978,170,0
47982,0,0
47986,0,0
47990,0,0
47994,225,0
47998,23,0
48002,0,0
48006,12,0
48010,326,0
48014,169,0
48018,0,0
48022,4,0
48026,312,0
48030,223,0
48034,0,0
48038,0,0
48042,255,0
48046,220,0
48050,0,0
48054,0,0
48058,216,0
48062,275,0
48066,7,0
48070,0,0
48074,176,0
48078,318,0
48082,114,0
48086,0,0
48090,134,0
48094,358,0
48098,175,0
48102,0,0
48106,79,0
48110,346,0
48114,229,0
48118,0,0
48122,0,0
48126,319,0
48130,281,0
48134,0,0
48138,15,0
48142,276,0
48146,335,0
48150,0,0
48154,0,0
48158,288,0
48162,366,0
48166,2,0
48170,0,0
48174,235,0
48178,339,0
48182,31,0
48186,0,0
48190,150,0
48194,295,0
48198,38,0
48202,0,0
48206,47,0
48210,246,0
48214,135,0
48218,0,0
48222,9,0
48226,310,0
48230,296,0
48234,0,0
48238,0,0
48242,272,0
48246,351,0
48250,0,0
48254,0,0
48258,190,0
48262,236,0
48266,0,0
48270,0,0
48274,205,0
48278,352,0
48282,23,0
48286,0,0
48290,145,0
48294,289,0
48298,0,0
48302,0,0
48306,59,0
48310,254,0
48314,133,0
48318,0,0
48322,68,0
48326,360,0
48330,352,0
48334,5,0
48338,31,0
48342,307,0
48346,394,0
48350,0,0
48354,0,0
48358,186,0
48362,329,0
48366,1,0
48370,0,0
48374,141,0
48378,306,0
48382,24,0
48386,0,0
48390,103,0
48394,353,0
48398,75,0
48402,0,0
48406,124,0
48410,413,0
48414,195,0
48418,0,0
48422,78,0
48426,363,0
48430,248,0
48434,0,0
48438,43,0
48442,307,0
48446,357,0
48450,30,0
48454,35,0
48458,249,0
48462,379,0
48466,58,0
48470,0,0
48474,130,0
48478,352,0
48482,68,0
48486,0,0
48490,94,0
48494,378,0
48498,124,0
48502,0,0
48506,70,0
48510,353,0
48514,145,0
48518,0,0
48522,30,0
48526,357,0
48530,237,0
48534,0,0
48538,1,0
48542,299,0
48546,262,0
48550,0,0
48554,15,0
48558,649,0
48562,677,0
48566,35,0
48570,10,0
48574,540,0
48578,709,0
48582,111,0
48586,0,0
48590,405,0
48594,726,0
48598,163,0
48602,0,0
48606,250,0
48610,734,0
48614,307,0
